 ag, Z=47, (Energy (eV),f1,f2)
   10.0000     -9999.00      1.18566    
   10.1617     -9999.00      1.22941    
   10.3261     -9999.00      1.27478    
   10.4931     -9999.00      1.32182    
   10.6628     -9999.00      1.38215    
   10.8353     -9999.00      1.45541    
   11.0106     -9999.00      1.53256    
   11.1886     -9999.00      1.61379    
   11.3696     -9999.00      1.69933    
   11.5535     -9999.00      1.78755    
   11.7404     -9999.00      1.87996    
   11.9303     -9999.00      1.97715    
   12.1232     -9999.00      2.07936    
   12.3193     -9999.00      2.18686    
   12.5186     -9999.00      2.29992    
   12.7210     -9999.00      2.41824    
   12.9268     -9999.00      2.53197    
   13.1359     -9999.00      2.65105    
   13.3483     -9999.00      2.77572    
   13.5642     -9999.00      2.90627    
   13.7836     -9999.00      3.04294    
   14.0066     -9999.00      3.18605    
   14.2331     -9999.00      3.33589    
   14.4633     -9999.00      3.47681    
   14.6973     -9999.00      3.60644    
   14.9350     -9999.00      3.74092    
   15.1765     -9999.00      3.88040    
   15.4220     -9999.00      4.02509    
   15.6714     -9999.00      4.17517    
   15.9249     -9999.00      4.29713    
   16.1825     -9999.00      4.41441    
   16.4442     -9999.00      4.53488    
   16.7102     -9999.00      4.65865    
   16.9805     -9999.00      4.78579    
   17.2551     -9999.00      4.90106    
   17.5342     -9999.00      4.98937    
   17.8178     -9999.00      5.07926    
   18.1060     -9999.00      5.17077    
   18.3989     -9999.00      5.29055    
   18.6964     -9999.00      5.45984    
   18.9988     -9999.00      5.63455    
   19.3061     -9999.00      5.81485    
   19.6184     -9999.00      6.00091    
   19.9357     -9999.00      6.19293    
   20.2582     -9999.00      6.42631    
   20.5858     -9999.00      6.67287    
   20.9188     -9999.00      6.92890    
   21.2571     -9999.00      7.19476    
   21.6009     -9999.00      7.47081    
   21.9503     -9999.00      7.69770    
   22.3053     -9999.00      7.91341    
   22.6661     -9999.00      8.13517    
   23.0327     -9999.00      8.36313    
   23.4053     -9999.00      8.59750    
   23.7838     -9999.00      8.81679    
   24.1685     -9999.00      8.87260    
   24.5594     -9999.00      8.92877    
   24.9566     -9999.00      8.98530    
   25.3603     -9999.00      9.04218    
   25.7705     -9999.00      9.09949    
   26.1873     -9999.00      9.21817    
   26.6109     -9999.00      9.33838    
   27.0413     -9999.00      9.46018    
   27.4786     -9999.00      9.58355    
   27.9231     -9999.00      9.70853    
   28.3747     -9999.00      9.84446    
   28.8337     -9999.00      10.0304    
   29.3000     -1.81922      10.2199    
   29.7739     -1.72868      10.4130    
   30.2555     -1.62587      10.6097    
   30.7449     -1.50683      10.8101    
   31.2421     -1.36942      10.9964    
   31.7475     -1.23794      11.1767    
   32.2609     -1.10469      11.3600    
   32.7827    -0.965780      11.5464    
   33.3130    -0.819277      11.7358    
   33.8518    -0.660791      11.9283    
   34.3993    -0.480585      12.1239    
   34.9557    -0.289667      12.2800    
   35.5211    -0.115068      12.4307    
   36.0956     0.544224E-01  12.5832    
   36.6794     0.222635      12.7376    
   37.2727     0.391268      12.8939    
   37.8755     0.561365      13.0521    
   38.4882     0.733759      13.2123    
   39.1107     0.909163      13.3744    
   39.7432      1.08835      13.5385    
   40.3861      1.27236      13.7046    
   41.0393      1.46409      13.8728    
   41.7031      1.66062      14.0329    
   42.3776      1.85709      14.1936    
   43.0630      2.05539      14.3561    
   43.7595      2.25726      14.5206    
   44.4673      2.46333      14.6868    
   45.1865      2.67431      14.8550    
   45.9174      2.89086      15.0252    
   46.6600      3.11409      15.1972    
   47.4147      3.34752      15.3713    
   48.1816      3.58781      15.5375    
   48.9609      3.82940      15.7033    
   49.7528      4.07512      15.8707    
   50.5576      4.32632      16.0400    
   51.3753      4.58400      16.2111    
   52.2062      4.84891      16.3840    
   53.0506      5.12192      16.5588    
   53.9087      5.40394      16.7354    
   54.7806      5.69619      16.9139    
   55.6667      6.00013      17.0943    
   56.5670      6.31814      17.2766    
   57.4820      6.65965      17.4609    
   58.4117      7.02554      17.6230    
   59.3564      7.38425      17.7648    
   60.3165      7.74300      17.9077    
   61.2921      8.10773      18.0518    
   62.2834      8.48132      18.1971    
   63.2908      8.86597      18.3435    
   64.3145      9.26387      18.4911    
   65.3547      9.67727      18.6400    
   66.4118      10.1095      18.7903    
   67.4859      10.5644      18.9419    
   68.5775      11.0481      19.0946    
   69.6867      11.5723      19.2486    
   70.8138      12.1880      19.3916    
   71.9591      12.7928      19.3995    
   73.1230      13.3763      19.4073    
   74.3057      13.9659      19.4152    
   75.5076      14.6042      19.4231    
   76.7289      15.2716      19.3269    
   77.9699      15.9027      19.1837    
   79.2310      16.5022      19.0416    
   80.5125      17.1136      18.9006    
   81.8147      17.7380      18.7252    
   83.1380      18.3594      18.5330    
   84.4827      18.9875      18.3428    
   85.8491      19.6399      18.1546    
   87.2377      20.4515      17.9682    
   88.6487      21.2684      17.5449    
   90.0825      21.9898      17.0948    
   91.5395      22.6998      16.6562    
   93.0201      23.6518      16.2288    
   94.5246      24.6488      15.3958    
   96.0535      25.3798      14.3678    
   97.6071      26.1748      13.3588    
   99.1858      26.6170      11.8096    
   100.790      26.6486      10.4401    
   102.420      26.4945      9.22940    
   104.077      26.2218      8.15907    
   105.760      25.8908      7.21290    
   107.471      25.5212      6.35320    
   109.209      25.0855      5.54204    
   110.975      24.5909      4.83444    
   112.770      24.0706      4.21718    
   114.594      23.5321      3.67872    
   116.448      22.9483      3.20904    
   118.331      22.3497      2.87080    
   120.245      21.8285      2.65218    
   122.190      21.3696      2.45021    
   124.166      20.9391      2.26363    
   126.175      20.5186      2.09125    
   128.215      20.1081      1.95934    
   130.289      19.7224      1.84480    
   132.397      19.3282      1.73695    
   134.538      18.9417      1.68905    
   136.714      18.5939      1.64838    
   138.925      18.2518      1.62622    
   141.172      17.9193      1.61766    
   143.456      17.6017      1.64747    
   145.776      17.3166      1.67547    
   148.134      17.0300      1.70176    
   150.530      16.7386      1.76394    
   152.964      16.4735      1.84444    
   155.439      16.2253      1.92861    
   157.953      15.9759      2.01662    
   160.507      15.7193      2.15015    
   163.103      15.5017      2.32060    
   165.742      15.3307      2.50385    
   168.422      15.1938      2.68031    
   171.146      15.0960      2.86721    
   173.915      15.0271      3.00223    
   176.727      14.9482      3.14361    
   179.586      14.8947      3.29165    
   182.491      14.8627      3.39185    
   185.442      14.8146      3.49172    
   188.442      14.7762      3.59453    
   191.489      14.7499      3.68459    
   194.587      14.7181      3.75705    
   197.734      14.6829      3.82883    
   200.932      14.6452      3.89043    
   204.182      14.6015      3.95302    
   207.485      14.5557      4.01661    
   210.840      14.5090      4.08124    
   214.251      14.4622      4.14690    
   217.716      14.4159      4.21361    
   221.237      14.3705      4.28140    
   224.816      14.3266      4.35028    
   228.452      14.2852      4.42028    
   232.147      14.2474      4.49139    
   235.902      14.2232      4.56365    
   239.717      14.2123      4.61085    
   243.595      14.1768      4.64794    
   247.535      14.1347      4.68533    
   251.538      14.0882      4.72301    
   255.607      14.0396      4.76100    
   259.741      13.9916      4.79115    
   263.942      13.9328      4.81758    
   268.211      13.8683      4.84415    
   272.549      13.8013      4.87086    
   276.957      13.7407      4.89747    
   281.437      13.6733      4.88211    
   285.989      13.5744      4.86682    
   290.615      13.4568      4.85156    
   295.315      13.3227      4.83621    
   300.092      13.1727      4.82077    
   304.945      13.0140      4.80537    
   309.878      12.8412      4.75691    
   314.890      12.6115      4.70031    
   319.983      12.3330      4.65850    
   325.158      12.0432      4.63031    
   330.418      11.7364      4.56246    
   335.762      11.2984      4.47942    
   341.192      10.7574      4.45994    
   346.711      10.1946      4.52242    
   352.319      9.55395      4.58117    
   358.017      8.84431      4.72932    
   363.808      8.04906      4.94624    
   369.692      7.15775      5.19718    
   375.672      6.09691      5.58879    
   381.748      4.70109      6.30297    
   387.922      3.39440      7.40671    
   394.197      2.22553      9.23062    
   400.573      1.55570      11.3138    
   407.052      1.60279      13.4510    
   413.635      1.87385      15.5235    
   420.326      2.55047      17.4481    
   427.124      3.76452      18.9749    
   434.032      4.89407      20.2222    
   441.052      5.94640      21.0287    
   448.186      6.91953      21.8673    
   455.435      7.85548      22.5317    
   462.802      8.74241      23.2092    
   470.287      9.68918      23.9071    
   477.894      10.6742      24.4322    
   485.623      11.6983      24.9566    
   493.478      12.6891      25.2194    
   501.459      13.5625      25.4740    
   509.570      14.3886      25.7312    
   517.812      15.2012      25.9911    
   526.187      16.0277      26.2212    
   534.698      16.8194      26.4202    
   543.346      17.6000      26.6207    
   552.134      18.3874      26.8227    
   561.065      19.2024      27.0262    
   570.139      20.1066      27.2313    
   579.361      21.0903      27.2392    
   588.732      21.9318      27.1301    
   598.254      22.6965      27.0214    
   607.930      23.4171      26.9132    
   617.763      24.1080      26.8054    
   627.755      24.7766      26.6944    
   637.908      25.4254      26.5824    
   648.226      26.0594      26.4708    
   658.711      26.6836      26.3597    
   669.365      27.3020      26.2491    
   680.191      27.9192      26.1389    
   691.193      28.5409      26.0293    
   702.372      29.1756      25.9200    
   713.733      29.8411      25.8113    
   725.277      30.6134      25.7029    
   737.008      31.3386      25.3172    
   748.928      31.9433      24.9300    
   761.042      32.4292      24.6050    
   773.351      32.9405      24.3539    
   785.859      33.5328      24.1054    
   798.570      34.1735      23.7375    
   811.486      34.6808      23.2537    
   824.611      35.0357      22.7837    
   837.949      35.3960      22.5089    
   851.502      35.8062      22.2374    
   865.274      36.3619      21.9692    
   879.269      36.8862      21.4603    
   893.491      37.2638      20.9270    
   907.943      37.5380      20.4070    
   922.628      37.7337      19.9845    
   937.551      37.9488      19.6336    
   952.715      38.2020      19.2806    
   968.124      38.4445      18.9190    
   983.783      38.6732      18.5649    
   999.695      38.8941      18.2156    
   1015.86      39.1139      17.8710    
   1032.29      39.3218      17.5164    
   1048.99      39.5138      17.1648    
   1065.96      39.6909      16.8161    
   1083.20      39.8538      16.4746    
   1100.72      40.0057      16.1400    
   1118.52      40.1474      15.8122    
   1136.61      40.2799      15.4912    
   1155.00      40.4042      15.1767    
   1173.68      40.5204      14.8685    
   1192.66      40.6291      14.5665    
   1211.95      40.7309      14.2706    
   1231.55      40.8257      13.9807    
   1251.47      40.9144      13.6972    
   1271.72      40.9974      13.4198    
   1292.29      41.0752      13.1483    
   1313.19      41.1485      12.8825    
   1334.43      41.2173      12.6221    
   1356.01      41.2821      12.3669    
   1377.94      41.3431      12.1169    
   1400.23      41.4009      11.8719    
   1422.88      41.4560      11.6319    
   1445.89      41.5107      11.3967    
   1469.28      41.5644      11.1634    
   1493.04      41.6226      10.9306    
   1517.19      41.6749      10.6850    
   1541.73      41.7100      10.4425    
   1566.67      41.7373      10.2055    
   1592.01      41.7580      9.97405    
   1617.76      41.7731      9.74780    
   1643.92      41.7832      9.52656    
   1670.51      41.7887      9.31021    
   1697.53      41.7901      9.09884    
   1724.99      41.7888      8.89242    
   1752.89      41.7847      8.68657    
   1781.24      41.7746      8.48395    
   1810.05      41.7586      8.28470    
   1839.32      41.7374      8.09055    
   1869.07      41.7120      7.90089    
   1899.30      41.6823      7.71539    
   1930.02      41.6482      7.53446    
   1961.24      41.6103      7.35786    
   1992.96      41.5679      7.18545    
   2025.20      41.5225      7.01915    
   2057.95      41.4755      6.85339    
   2091.24      41.4228      6.69071    
   2125.06      41.3651      6.53174    
   2159.43      41.3027      6.37653    
   2194.36      41.2356      6.22489    
   2229.85      41.1637      6.07701    
   2265.92      41.0868      5.93230    
   2302.57      41.0046      5.79105    
   2339.81      40.9166      5.65313    
   2377.66      40.8226      5.51848    
   2416.11      40.7221      5.38707    
   2455.19      40.6147      5.25884    
   2494.90      40.4997      5.13370    
   2535.26      40.3763      5.01163    
   2576.26      40.2437      4.89256    
   2617.93      40.1008      4.77642    
   2660.27      39.9462      4.66311    
   2703.30      39.7784      4.55267    
   2747.03      39.5953      4.44501    
   2791.46      39.3945      4.33998    
   2836.61      39.1727      4.23759    
   2882.49      38.9257      4.13785    
   2929.11      38.6479      4.04062    
   2976.48      38.3318      3.94587    
   3024.63      37.9662      3.85353    
   3073.55      37.5349      3.76361    
   3123.26      37.0115      3.67596    
   3173.78      36.3499      3.59056    
   3225.11      35.4564      3.50738    
   3277.27      34.0841      3.42637    
   3330.28      30.9467      3.34743    
   3351.00      18.1610      3.31742    
   3351.20      18.1618      10.8260    
   3384.15      31.9201      10.6678    
   3438.88      33.8150      10.4135    
   3494.50      33.8391      10.1657    
   3523.60      27.6385      10.0399    
   3523.80      27.6422      13.7502    
   3551.02      34.6661      13.5923    
   3608.46      36.6213      13.2689    
   3666.82      37.6552      12.9532    
   3726.13      38.2768      12.6444    
   3786.40      38.0760      12.3435    
   3805.70      35.7476      12.2496    
   3805.90      35.7534      14.0388    
   3847.64      39.3005      13.8258    
   3909.87      40.3636      13.5182    
   3973.11      41.1148      13.2155    
   4037.38      41.7267      12.9155    
   4102.68      42.2492      12.6208    
   4169.03      42.7075      12.3301    
   4236.46      43.1144      12.0439    
   4304.98      43.4794      11.7626    
   4374.62      43.8101      11.4863    
   4445.37      44.1104      11.2136    
   4517.27      44.3840      10.9460    
   4590.33      44.6343      10.6833    
   4664.58      44.8638      10.4251    
   4740.03      45.0746      10.1717    
   4816.69      45.2684      9.92324    
   4894.60      45.4468      9.67948    
   4973.77      45.6110      9.44039    
   5054.21      45.7624      9.20601    
   5135.96      45.9017      8.97641    
   5219.03      46.0301      8.75149    
   5303.44      46.1482      8.53119    
   5389.22      46.2569      8.31557    
   5476.39      46.3569      8.10442    
   5564.97      46.4485      7.89794    
   5654.98      46.5325      7.69578    
   5746.44      46.6094      7.49817    
   5839.39      46.6798      7.30492    
   5933.83      46.7438      7.11596    
   6029.81      46.8020      6.93126    
   6127.33      46.8547      6.75079    
   6226.44      46.9023      6.57444    
   6327.15      46.9451      6.40224    
   6429.48      46.9834      6.23409    
   6533.48      47.0175      6.06975    
   6639.15      47.0476      5.90945    
   6746.54      47.0741      5.75290    
   6855.65      47.0971      5.60018    
   6966.54      47.1167      5.45094    
   7079.22      47.1332      5.30552    
   7193.72      47.1469      5.16361    
   7310.07      47.1578      5.02523    
   7428.31      47.1663      4.89031    
   7548.45      47.1724      4.75869    
   7670.54      47.1763      4.63026    
   7794.61      47.1779      4.50510    
   7920.68      47.1777      4.38327    
   8048.79      47.1755      4.26427    
   8178.98      47.1718      4.14847    
   8311.26      47.1663      4.03554    
   8445.69      47.1593      3.92563    
   8582.29      47.1509      3.81844    
   8721.11      47.1413      3.71407    
   8862.16      47.1303      3.61232    
   9005.50      47.1181      3.51332    
   9151.16      47.1050      3.41702    
   9299.17      47.0910      3.32309    
   9449.58      47.0758      3.23157    
   9602.42      47.0597      3.14262    
   9757.73      47.0430      3.05603    
   9915.55      47.0254      2.97157    
   10075.9      47.0071      2.88946    
   10238.9      46.9881      2.80955    
   10404.5      46.9685      2.73178    
   10572.8      46.9483      2.65609    
   10743.8      46.9276      2.58245    
   10917.6      46.9064      2.51078    
   11094.2      46.8847      2.44106    
   11273.6      46.8626      2.37322    
   11455.9      46.8401      2.30723    
   11641.2      46.8171      2.24304    
   11829.5      46.7938      2.18059    
   12020.8      46.7702      2.11985    
   12215.3      46.7462      2.06077    
   12412.8      46.7218      2.00331    
   12613.6      46.6972      1.94743    
   12817.6      46.6723      1.89309    
   13025.0      46.6470      1.84024    
   13235.6      46.6215      1.78885    
   13449.7      46.5957      1.73889    
   13667.2      46.5696      1.69030    
   13888.3      46.5431      1.64307    
   14112.9      46.5164      1.59714    
   14341.2      46.4894      1.55249    
   14573.1      46.4620      1.50908    
   14808.9      46.4342      1.46688    
   15048.4      46.4061      1.42586    
   15291.8      46.3776      1.38599    
   15539.1      46.3486      1.34723    
   15790.4      46.3192      1.30955    
   16045.8      46.2892      1.27293    
   16305.4      46.2587      1.23733    
   16569.1      46.2276      1.20274    
   16837.1      46.1957      1.16911    
   17109.4      46.1632      1.13643    
   17386.1      46.1297      1.10467    
   17667.4      46.0954      1.07380    
   17953.1      46.0599      1.04381    
   18243.5      46.0233      1.01465    
   18538.6      45.9853     0.986325    
   18838.4      45.9458     0.958794    
   19143.1      45.9046     0.932041    
   19452.7      45.8614     0.906044    
   19767.4      45.8159     0.880780    
   20087.1      45.7677     0.856231    
   20412.0      45.7164     0.832377    
   20742.1      45.6615     0.809197    
   21077.6      45.6022     0.786673    
   21418.5      45.5377     0.764788    
   21765.0      45.4668     0.743521    
   22117.0      45.3880     0.722858    
   22474.7      45.2991     0.702780    
   22838.2      45.1973     0.683270    
   23207.6      45.0780     0.664314    
   23583.0      44.9342     0.645895    
   23964.4      44.7539     0.627998    
   24352.0      44.5141     0.610608    
   24745.9      44.1612     0.593712    
   25146.2      43.5138     0.577294    
   25513.9      35.7672     0.562829    
   25514.1      35.7674      3.56169    
   25552.9      41.4593      3.55330    
   25966.2      43.8729      3.46583    
   26386.1      44.5460      3.38000    
   26812.9      44.9598      3.29582    
   27246.6      45.2599      3.21329    
   27687.3      45.4949      3.13240    
   28135.1      45.6872      3.05314    
   28590.2      45.8492      2.97550    
   29052.6      45.9888      2.89948    
   29522.5      46.1180      2.82506    
   30000.0      46.1929      2.75222    
