 as, Z=33, (Energy (eV),f1,f2)
   10.0000     -9999.00      4.62596    
   10.1617     -9999.00      4.67742    
   10.3261     -9999.00      4.72945    
   10.4931     -9999.00      4.78206    
   10.6628     -9999.00      4.83525    
   10.8353     -9999.00      4.88904    
   11.0106     -9999.00      4.94342    
   11.1886     -9999.00      4.99841    
   11.3696     -9999.00      5.05401    
   11.5535     -9999.00      5.11023    
   11.7404     -9999.00      5.16708    
   11.9303     -9999.00      5.22456    
   12.1232     -9999.00      5.28267    
   12.3193     -9999.00      5.31932    
   12.5186     -9999.00      5.31541    
   12.7210     -9999.00      5.31150    
   12.9268     -9999.00      5.30759    
   13.1359     -9999.00      5.30369    
   13.3483     -9999.00      5.29978    
   13.5642     -9999.00      5.29589    
   13.7836     -9999.00      5.29199    
   14.0066     -9999.00      5.28751    
   14.2331     -9999.00      5.28080    
   14.4633     -9999.00      5.27410    
   14.6973     -9999.00      5.26741    
   14.9350     -9999.00      5.26072    
   15.1765     -9999.00      5.25404    
   15.4220     -9999.00      5.24738    
   15.6714     -9999.00      5.24072    
   15.9249     -9999.00      5.23407    
   16.1825     -9999.00      5.22742    
   16.4442     -9999.00      5.15507    
   16.7102     -9999.00      5.06546    
   16.9805     -9999.00      4.97741    
   17.2551     -9999.00      4.89090    
   17.5342     -9999.00      4.80588    
   17.8178     -9999.00      4.72235    
   18.1060     -9999.00      4.64026    
   18.3989     -9999.00      4.53714    
   18.6964     -9999.00      4.37679    
   18.9988     -9999.00      4.22210    
   19.3061     -9999.00      4.07288    
   19.6184     -9999.00      3.92893    
   19.9357     -9999.00      3.79007    
   20.2582     -9999.00      3.65612    
   20.5858     -9999.00      3.52329    
   20.9188     -9999.00      3.39393    
   21.2571     -9999.00      3.26932    
   21.6009     -9999.00      3.14929    
   21.9503     -9999.00      3.03366    
   22.3053     -9999.00      2.88009    
   22.6661     -9999.00      2.71399    
   23.0327     -9999.00      2.55747    
   23.4053     -9999.00      2.40998    
   23.7838     -9999.00      2.27099    
   24.1685     -9999.00      2.14002    
   24.5594     -9999.00      2.01335    
   24.9566     -9999.00      1.89149    
   25.3603     -9999.00      1.77702    
   25.7705     -9999.00      1.66947    
   26.1873     -9999.00      1.56843    
   26.6109     -9999.00      1.47351    
   27.0413     -9999.00      1.37723    
   27.4786     -9999.00      1.28202    
   27.9231     -9999.00      1.19340    
   28.3747     -9999.00      1.11090    
   28.8337     -9999.00      1.03411    
   29.3000      6.58480     0.968319    
   29.7739      6.50149     0.916166    
   30.2555      6.42175     0.866823    
   30.7449      6.34270     0.820138    
   31.2421      6.26381     0.775967    
   31.7475      6.18643     0.734175    
   32.2609      6.10805     0.684550    
   32.7827      6.01692     0.635642    
   33.3130      5.91271     0.590347    
   33.8518      5.80605     0.567907    
   34.3993      5.70259     0.546319    
   34.9557      5.59388     0.527579    
   35.5211      5.48400     0.517980    
   36.0956      5.36967     0.508556    
   36.6794      5.24292     0.508966    
   37.2727      5.11497     0.517035    
   37.8755      4.97518     0.539057    
   38.4882      4.82707     0.569786    
   39.1107      4.64548     0.643758    
   39.7432      4.50161     0.766203    
   40.3861      4.38743     0.911940    
   41.0393      4.31305      1.07785    
   41.7031      4.28570      1.26123    
   42.3776      4.33582      1.39611    
   43.0630      4.39229      1.49928    
   43.7595      4.44656      1.51243    
   44.4673      4.45697      1.51714    
   45.1865      4.44758      1.52187    
   45.9174      4.42836      1.52316    
   46.6600      4.39149      1.51765    
   47.4147      4.33769      1.51216    
   48.1816      4.26228      1.50669    
   48.9609      4.14655      1.52291    
   49.7528      4.04859      1.57707    
   50.5576      3.96047      1.63316    
   51.3753      3.86962      1.69125    
   52.2062      3.76530      1.76089    
   53.0506      3.67160      1.84975    
   53.9087      3.58491      1.94308    
   54.7806      3.50091      2.04112    
   55.6667      3.41812      2.14411    
   56.5670      3.33371      2.25553    
   57.4820      3.25526      2.37750    
   58.4117      3.18186      2.50606    
   59.3564      3.11345      2.64157    
   60.3165      3.05149      2.78441    
   61.2921      3.00010      2.93498    
   62.2834      2.95565      3.07900    
   63.2908      2.91053      3.22779    
   64.3145      2.86898      3.38378    
   65.3547      2.83353      3.54730    
   66.4118      2.80821      3.71872    
   67.4859      2.80285      3.89844    
   68.5775      2.81237      4.05153    
   69.6867      2.80932      4.19949    
   70.8138      2.80338      4.35284    
   71.9591      2.79878      4.51180    
   73.1230      2.79918      4.67657    
   74.3057      2.81233      4.84610    
   75.5076      2.82603      4.99971    
   76.7289      2.83488      5.15819    
   77.9699      2.84378      5.32169    
   79.2310      2.85452      5.49038    
   80.5125      2.86840      5.66441    
   81.8147      2.88654      5.84396    
   83.1380      2.91036      6.02920    
   84.4827      2.94172      6.22031    
   85.8491      2.98592      6.41748    
   87.2377      3.05109      6.60275    
   88.6487      3.10712      6.77774    
   90.0825      3.15965      6.95736    
   91.5395      3.21489      7.14175    
   93.0201      3.27457      7.33102    
   94.5246      3.34070      7.52530    
   96.0535      3.41590      7.72473    
   97.6071      3.50767      7.92946    
   99.1858      3.62493      8.11231    
   100.790      3.72675      8.27853    
   102.420      3.82010      8.44815    
   104.077      3.91329      8.62126    
   105.760      4.00796      8.79790    
   107.471      4.10573      8.97817    
   109.209      4.20869      9.16212    
   110.975      4.31860      9.34518    
   112.770      4.42924      9.52799    
   114.594      4.54308      9.71439    
   116.448      4.66181      9.90442    
   118.331      4.78694      10.0982    
   120.245      4.92034      10.2957    
   122.190      5.06696      10.4971    
   124.166      5.23418      10.6848    
   126.175      5.39362      10.8604    
   128.215      5.54958      11.0388    
   130.289      5.70858      11.2202    
   132.397      5.87214      11.4045    
   134.538      6.04173      11.5919    
   136.714      6.21878      11.7824    
   138.925      6.40509      11.9760    
   141.172      6.60296      12.1727    
   143.456      6.81677      12.3728    
   145.776      7.06119      12.5761    
   148.134      7.34059      12.7351    
   150.530      7.59109      12.8589    
   152.964      7.82849      12.9840    
   155.439      8.06178      13.1103    
   157.953      8.29471      13.2378    
   160.507      8.52977      13.3666    
   163.103      8.76980      13.4965    
   165.742      9.02503      13.6241    
   168.422      9.27761      13.7343    
   171.146      9.52616      13.8454    
   173.915      9.77643      13.9574    
   176.727      10.0305      14.0703    
   179.586      10.2902      14.1841    
   182.491      10.5577      14.2988    
   185.442      10.8369      14.4145    
   188.442      11.1542      14.5311    
   191.489      11.4492      14.5715    
   194.587      11.7208      14.6486    
   197.734      11.9934      14.7407    
   200.932      12.2903      14.8454    
   204.182      12.6107      14.9511    
   207.485      12.9626      15.0574    
   210.840      13.3850      15.1643    
   214.251      13.8167      15.1280    
   217.716      14.2179      15.0612    
   221.237      14.5657      14.9705    
   224.816      14.8858      14.8805    
   228.452      15.1880      14.7910    
   232.147      15.4764      14.7019    
   235.902      15.7541      14.6134    
   239.717      16.0230      14.5256    
   243.595      16.2850      14.4384    
   247.535      16.5412      14.3515    
   251.538      16.7926      14.2651    
   255.607      17.0403      14.1791    
   259.741      17.2856      14.0939    
   263.942      17.5302      14.0092    
   268.211      17.7762      13.9249    
   272.549      18.0286      13.8410    
   276.957      18.3009      13.7377    
   281.437      18.5585      13.6104    
   285.989      18.7960      13.4683    
   290.615      19.0174      13.3255    
   295.315      19.2265      13.1846    
   300.092      19.4268      13.0448    
   304.945      19.6193      12.9066    
   309.878      19.8054      12.7700    
   314.890      19.9857      12.6346    
   319.983      20.1606      12.5006    
   325.158      20.3306      12.3680    
   330.418      20.4964      12.2373    
   335.762      20.6587      12.1079    
   341.192      20.8176      11.9796    
   346.711      20.9733      11.8526    
   352.319      21.1263      11.7270    
   358.017      21.2774      11.6029    
   363.808      21.4268      11.4798    
   369.692      21.5749      11.3580    
   375.672      21.7232      11.2377    
   381.748      21.8737      11.1186    
   387.922      22.0309      10.9970    
   394.197      22.1945      10.8686    
   400.573      22.3552      10.7162    
   407.052      22.4965      10.5560    
   413.635      22.6253      10.3978    
   420.326      22.7456      10.2422    
   427.124      22.8592      10.0890    
   434.032      22.9680      9.93846    
   441.052      23.0726      9.78966    
   448.186      23.1759      9.64207    
   455.435      23.2745      9.49261    
   462.802      23.3679      9.34204    
   470.287      23.4550      9.19197    
   477.894      23.5359      9.04395    
   485.623      23.6122      8.89855    
   493.478      23.6847      8.75560    
   501.459      23.7539      8.61510    
   509.570      23.8205      8.47678    
   517.812      23.8859      8.34005    
   526.187      23.9495      8.20331    
   534.698      24.0101      8.06476    
   543.346      24.0653      7.92655    
   552.134      24.1184      7.79076    
   561.065      24.1686      7.65049    
   570.139      24.2101      7.50992    
   579.361      24.2453      7.37433    
   588.732      24.2768      7.24206    
   598.254      24.3057      7.11270    
   607.930      24.3320      6.98562    
   617.763      24.3564      6.86082    
   627.755      24.3809      6.73778    
   637.908      24.4047      6.61126    
   648.226      24.4239      6.47875    
   658.711      24.4306      6.34346    
   669.365      24.4238      6.21097    
   680.191      24.4056      6.09532    
   691.193      24.3908      5.99258    
   702.372      24.3872      5.89425    
   713.733      24.3863      5.78824    
   725.277      24.3780      5.67781    
   737.008      24.3640      5.56959    
   748.928      24.3461      5.46339    
   761.042      24.3249      5.35912    
   773.351      24.3012      5.25587    
   785.859      24.2740      5.15157    
   798.570      24.2402      5.04684    
   811.486      24.2004      4.94425    
   824.611      24.1553      4.84371    
   837.949      24.1051      4.74520    
   851.502      24.0495      4.64821    
   865.274      23.9884      4.55276    
   879.269      23.9210      4.45888    
   893.491      23.8472      4.36687    
   907.943      23.7667      4.27681    
   922.628      23.6798      4.18867    
   937.551      23.5850      4.10056    
   952.715      23.4813      4.01395    
   968.124      23.3677      3.92886    
   983.783      23.2435      3.84551    
   999.695      23.1077      3.76402    
   1015.86      22.9591      3.68437    
   1032.29      22.7970      3.60698    
   1048.99      22.6193      3.53036    
   1065.96      22.4225      3.45446    
   1083.20      22.2040      3.38029    
   1100.72      21.9601      3.30767    
   1118.52      21.6863      3.23656    
   1136.61      21.3764      3.16708    
   1155.00      21.0221      3.09908    
   1173.68      20.6118      3.03254    
   1192.66      20.1289      2.96728    
   1211.95      19.5479      2.90349    
   1231.55      18.8281      2.84117    
   1251.47      17.8969      2.78039    
   1271.72      16.6060      2.72110    
   1292.29      14.5682      2.66332    
   1313.19      9.94240      2.60676    
   1323.50     -10.3277      2.57963    
   1323.70     -10.3191      16.4311    
   1334.43      10.4900      16.2725    
   1356.01      15.5371      15.9618    
   1377.94      17.9553      15.6569    
   1400.23      19.5599      15.3578    
   1422.88      20.7456      15.0644    
   1445.89      21.6596      14.7768    
   1469.28      22.3592      14.4951    
   1493.04      22.8321      14.2193    
   1517.19      22.7982      13.9488    
   1526.90      20.2859      13.8426    
   1527.10      20.2925      15.7546    
   1541.73      23.7309      15.5518    
   1566.67      24.9157      15.2164    
   1592.01      25.7310      14.8881    
   1617.76      26.3969      14.5669    
   1643.92      26.9712      14.2527    
   1670.51      27.4804      13.9452    
   1697.53      27.9401      13.6443    
   1724.99      28.3637      13.3500    
   1752.89      28.7528      13.0487    
   1781.24      29.1071      12.7497    
   1810.05      29.4284      12.4541    
   1839.32      29.7222      12.1653    
   1869.07      29.9926      11.8833    
   1899.30      30.2427      11.6080    
   1930.02      30.4745      11.3387    
   1961.24      30.6901      11.0758    
   1992.96      30.8892      10.8192    
   2025.20      31.0814      10.5744    
   2057.95      31.2636      10.3223    
   2091.24      31.4305      10.0742    
   2125.06      31.5841      9.83089    
   2159.43      31.7266      9.59263    
   2194.36      31.8585      9.35857    
   2229.85      31.9808      9.12957    
   2265.92      32.0942      8.90515    
   2302.57      32.1993      8.68526    
   2339.81      32.2962      8.46975    
   2377.66      32.3858      8.25918    
   2416.11      32.4686      8.05289    
   2455.19      32.5449      7.85100    
   2494.90      32.6151      7.65350    
   2535.26      32.6795      7.46014    
   2576.26      32.7383      7.27115    
   2617.93      32.7920      7.08633    
   2660.27      32.8407      6.90567    
   2703.30      32.8851      6.72950    
   2747.03      32.9253      6.55696    
   2791.46      32.9615      6.38852    
   2836.61      32.9936      6.22360    
   2882.49      33.0222      6.06320    
   2929.11      33.0476      5.90606    
   2976.48      33.0698      5.75282    
   3024.63      33.0888      5.60288    
   3073.55      33.1050      5.45711    
   3123.26      33.1187      5.31436    
   3173.78      33.1298      5.17522    
   3225.11      33.1386      5.03945    
   3277.27      33.1451      4.90699    
   3330.28      33.1496      4.77772    
   3384.15      33.1521      4.65164    
   3438.88      33.1527      4.52871    
   3494.50      33.1516      4.40881    
   3551.02      33.1488      4.29189    
   3608.46      33.1445      4.17785    
   3666.82      33.1388      4.06672    
   3726.13      33.1317      3.95841    
   3786.40      33.1234      3.85275    
   3847.64      33.1138      3.74982    
   3909.87      33.1032      3.64949    
   3973.11      33.0915      3.55169    
   4037.38      33.0788      3.45642    
   4102.68      33.0652      3.36358    
   4169.03      33.0507      3.27315    
   4236.46      33.0355      3.18503    
   4304.98      33.0195      3.09915    
   4374.62      33.0028      3.01551    
   4445.37      32.9854      2.93405    
   4517.27      32.9674      2.85471    
   4590.33      32.9488      2.77744    
   4664.58      32.9297      2.70218    
   4740.03      32.9101      2.62882    
   4816.69      32.8900      2.55745    
   4894.60      32.8694      2.48796    
   4973.77      32.8484      2.42027    
   5054.21      32.8271      2.35440    
   5135.96      32.8054      2.29024    
   5219.03      32.7833      2.22777    
   5303.44      32.7609      2.16689    
   5389.22      32.7381      2.10769    
   5476.39      32.7150      2.05008    
   5564.97      32.6916      1.99396    
   5654.98      32.6680      1.93929    
   5746.44      32.6440      1.88612    
   5839.39      32.6197      1.83437    
   5933.83      32.5952      1.78399    
   6029.81      32.5703      1.73491    
   6127.33      32.5452      1.68727    
   6226.44      32.5198      1.64080    
   6327.15      32.4940      1.59559    
   6429.48      32.4680      1.55160    
   6533.48      32.4416      1.50872    
   6639.15      32.4149      1.46703    
   6746.54      32.3877      1.42647    
   6855.65      32.3602      1.38698    
   6966.54      32.3323      1.34861    
   7079.22      32.3039      1.31117    
   7193.72      32.2750      1.27479    
   7310.07      32.2455      1.23936    
   7428.31      32.2154      1.20490    
   7548.45      32.1847      1.17136    
   7670.54      32.1533      1.13871    
   7794.61      32.1211      1.10695    
   7920.68      32.0880      1.07604    
   8048.79      32.0539      1.04595    
   8178.98      32.0188      1.01667    
   8311.26      31.9824     0.988193    
   8445.69      31.9447     0.960474    
   8582.29      31.9055     0.933474    
   8721.11      31.8645     0.907218    
   8862.16      31.8216     0.881665    
   9005.50      31.7765     0.856803    
   9151.16      31.7289     0.832600    
   9299.17      31.6782     0.809046    
   9449.58      31.6242     0.786113    
   9602.42      31.5662     0.763808    
   9757.73      31.5034     0.742093    
   9915.55      31.4350     0.720972    
   10075.9      31.3597     0.700403    
   10238.9      31.2760     0.680383    
   10404.5      31.1816     0.660898    
   10572.8      31.0736     0.641932    
   10743.8      30.9475     0.623472    
   10917.6      30.7963     0.605504    
   11094.2      30.6087     0.588014    
   11273.6      30.3635     0.570989    
   11455.9      30.0146     0.554417    
   11641.2      29.4268     0.538285    
   11829.5      27.5708     0.522580    
   11866.6      21.2382     0.519571    
   11866.8      21.2385      3.89295    
   12020.8      29.2007      3.81789    
   12215.3      30.1347      3.72654    
   12412.8      30.6593      3.63671    
   12613.6      31.0279      3.54840    
   12817.6      31.3121      3.46164    
   13025.0      31.5428      3.37642    
   13235.6      31.7361      3.29277    
   13449.7      31.9017      3.21069    
   13667.2      32.0458      3.13016    
   13888.3      32.1726      3.05120    
   14112.9      32.2852      2.97380    
   14341.2      32.3859      2.89796    
   14573.1      32.4764      2.82366    
   14808.9      32.5581      2.75090    
   15048.4      32.6321      2.67966    
   15291.8      32.6994      2.60995    
   15539.1      32.7606      2.54173    
   15790.4      32.8165      2.47500    
   16045.8      32.8675      2.40974    
   16305.4      32.9140      2.34594    
   16569.1      32.9566      2.28358    
   16837.1      32.9956      2.22263    
   17109.4      33.0312      2.16308    
   17386.1      33.0638      2.10492    
   17667.4      33.0936      2.04811    
   17953.1      33.1207      1.99264    
   18243.5      33.1455      1.93849    
   18538.6      33.1681      1.88564    
   18838.4      33.1886      1.83407    
   19143.1      33.2072      1.78375    
   19452.7      33.2241      1.73466    
   19767.4      33.2393      1.68678    
   20087.1      33.2530      1.64008    
   20412.0      33.2652      1.59455    
   20742.1      33.2762      1.55017    
   21077.6      33.2859      1.50690    
   21418.5      33.2945      1.46474    
   21765.0      33.3019      1.42364    
   22117.0      33.3084      1.38361    
   22474.7      33.3140      1.34460    
   22838.2      33.3187      1.30661    
   23207.6      33.3225      1.26960    
   23583.0      33.3257      1.23356    
   23964.4      33.3281      1.19847    
   24352.0      33.3298      1.16430    
   24745.9      33.3310      1.13104    
   25146.2      33.3316      1.09866    
   25552.9      33.3316      1.06715    
   25966.2      33.3312      1.03648    
   26386.1      33.3303      1.00664    
   26812.9      33.3290     0.977596    
   27246.6      33.3273     0.949343    
   27687.3      33.3252     0.921857    
   28135.1      33.3228     0.895120    
   28590.2      33.3201     0.869114    
   29052.6      33.3171     0.843822    
   29522.5      33.3138     0.819225    
   30000.0      33.3103     0.795307    
