 au, Z=79, (Energy (eV),f1,f2)
   10.0000     -9999.00      1.73645    
   10.1617     -9999.00      1.81425    
   10.3261     -9999.00      1.89553    
   10.4931     -9999.00      1.98045    
   10.6628     -9999.00      2.06919    
   10.8353     -9999.00      2.16029    
   11.0106     -9999.00      2.25522    
   11.1886     -9999.00      2.35433    
   11.3696     -9999.00      2.45698    
   11.5535     -9999.00      2.56237    
   11.7404     -9999.00      2.67227    
   11.9303     -9999.00      2.78521    
   12.1232     -9999.00      2.88817    
   12.3193     -9999.00      2.99494    
   12.5186     -9999.00      3.10132    
   12.7210     -9999.00      3.19752    
   12.9268     -9999.00      3.29669    
   13.1359     -9999.00      3.39894    
   13.3483     -9999.00      3.50437    
   13.5642     -9999.00      3.61306    
   13.7836     -9999.00      3.73152    
   14.0066     -9999.00      3.85438    
   14.2331     -9999.00      3.98129    
   14.4633     -9999.00      4.11238    
   14.6973     -9999.00      4.24778    
   14.9350     -9999.00      4.38725    
   15.1765     -9999.00      4.51173    
   15.4220     -9999.00      4.63973    
   15.6714     -9999.00      4.77138    
   15.9249     -9999.00      4.90700    
   16.1825     -9999.00      5.04723    
   16.4442     -9999.00      5.19146    
   16.7102     -9999.00      5.33982    
   16.9805     -9999.00      5.49242    
   17.2551     -9999.00      5.68629    
   17.5342     -9999.00      5.92705    
   17.8178     -9999.00      6.17800    
   18.1060     -9999.00      6.43958    
   18.3989     -9999.00      6.70137    
   18.6964     -9999.00      6.96844    
   18.9988     -9999.00      7.24614    
   19.3061     -9999.00      7.53492    
   19.6184     -9999.00      7.83520    
   19.9357     -9999.00      8.12303    
   20.2582     -9999.00      8.41958    
   20.5858     -9999.00      8.72696    
   20.9188     -9999.00      9.04555    
   21.2571     -9999.00      9.37578    
   21.6009     -9999.00      9.65639    
   21.9503     -9999.00      9.85393    
   22.3053     -9999.00      10.0555    
   22.6661     -9999.00      10.1353    
   23.0327     -9999.00      10.0079    
   23.4053     -9999.00      9.88212    
   23.7838     -9999.00      9.66742    
   24.1685     -9999.00      9.44840    
   24.5594     -9999.00      9.19934    
   24.9566     -9999.00      8.91210    
   25.3603     -9999.00      8.80138    
   25.7705     -9999.00      8.83333    
   26.1873     -9999.00      8.86539    
   26.6109     -9999.00      8.89756    
   27.0413     -9999.00      9.16016    
   27.4786     -9999.00      9.45786    
   27.9231     -9999.00      9.76523    
   28.3747     -9999.00      10.2659    
   28.8337     -9999.00      10.8106    
   29.3000      2.78186      11.3841    
   29.7739      3.12197      11.9461    
   30.2555      3.70915      12.3765    
   30.7449      4.20738      12.6184    
   31.2421      4.73090      12.8652    
   31.7475      5.46023      12.8839    
   32.2609      5.87616      12.6294    
   32.7827      6.08759      12.5189    
   33.3130      6.32748      12.4795    
   33.8518      6.56094      12.4401    
   34.3993      6.77999      12.4009    
   34.9557      6.98361      12.3612    
   35.5211      7.16960      12.3210    
   36.0956      7.33501      12.2809    
   36.6794      7.47047      12.2410    
   37.2727      7.56618      12.2520    
   37.8755      7.69660      12.2957    
   38.4882      7.83947      12.3395    
   39.1107      7.98680      12.3835    
   39.7432      8.13188      12.4276    
   40.3861      8.26647      12.4883    
   41.0393      8.42254      12.5633    
   41.7031      8.59265      12.6389    
   42.3776      8.77385      12.7149    
   43.0630      8.96787      12.7913    
   43.7595      9.18641      12.8683    
   44.4673      9.46044      12.9155    
   45.1865      9.69558      12.8825    
   45.9174      9.89174      12.8495    
   46.6600      10.0695      12.8166    
   47.4147      10.2373      12.7764    
   48.1816      10.3747      12.7253    
   48.9609      10.4803      12.6743    
   49.7528      10.5325      12.6236    
   50.5576      10.4820      12.6684    
   51.3753      10.5236      12.8041    
   52.2062      10.6116      12.9412    
   53.0506      10.7140      13.0799    
   53.9087      10.8153      13.2200    
   54.7806      10.8726      13.4192    
   55.6667      11.0212      13.6953    
   56.5670      11.2340      13.9771    
   57.4820      11.5042      14.2647    
   58.4117      11.8496      14.5582    
   59.3564      12.3324      14.7951    
   60.3165      12.7858      14.9282    
   61.2921      13.2429      15.0626    
   62.2834      13.7797      15.1981    
   63.2908      14.5113      15.1516    
   64.3145      15.0559      14.9190    
   65.3547      15.5212      14.6802    
   66.4118      15.9070      14.3628    
   67.4859      16.2049      14.0523    
   68.5775      16.4318      13.7485    
   69.6867      16.5634      13.4513    
   70.8138      16.6399      13.3031    
   71.9591      16.7793      13.2003    
   73.1230      16.9357      13.0984    
   74.3057      17.0724      13.0206    
   75.5076      17.2580      12.9864    
   76.7289      17.4936      12.9523    
   77.9699      17.8101      12.8622    
   79.2310      18.0550      12.6853    
   80.5125      18.2473      12.5107    
   81.8147      18.3659      12.3386    
   83.1380      18.2599      12.4097    
   84.4827      18.8505      12.9523    
   85.8491      19.5657      12.5874    
   87.2377      20.0820      12.2174    
   88.6487      20.4581      11.7345    
   90.0825      20.7202      11.2706    
   91.5395      20.9355      10.8251    
   93.0201      21.0795      10.3143    
   94.5246      21.1195      9.82493    
   96.0535      21.0563      9.43000    
   97.6071      21.0251      9.10771    
   99.1858      21.0098      8.79644    
   100.790      20.9978      8.49581    
   102.420      20.9828      8.16706    
   104.077      20.9254      7.83561    
   105.760      20.8316      7.51761    
   107.471      20.6981      7.21250    
   109.209      20.5315      6.97495    
   110.975      20.3879      6.76890    
   112.770      20.2552      6.56893    
   114.594      20.1193      6.37486    
   116.448      19.9745      6.18654    
   118.331      19.8219      6.01704    
   120.245      19.6733      5.85800    
   122.190      19.5238      5.70317    
   124.166      19.3717      5.55244    
   126.175      19.2194      5.40568    
   128.215      19.0962      5.24101    
   130.289      18.9163      5.02374    
   132.397      18.6716      4.81547    
   134.538      18.3368      4.65529    
   136.714      18.0408      4.59490    
   138.925      17.7643      4.53529    
   141.172      17.4858      4.47645    
   143.456      17.1848      4.41838    
   145.776      16.8355      4.41238    
   148.134      16.5220      4.45484    
   150.530      16.2294      4.49770    
   152.964      15.9331      4.54099    
   155.439      15.6201      4.58468    
   157.953      15.2536      4.64434    
   160.507      14.9046      4.79736    
   163.103      14.5783      4.95542    
   165.742      14.2575      5.11868    
   168.422      13.9229      5.28732    
   171.146      13.5181      5.50617    
   173.915      13.1645      5.81309    
   176.727      12.8542      6.13711    
   179.586      12.5629      6.47920    
   182.491      12.2870      6.84035    
   185.442      12.0260      7.22425    
   188.442      11.7828      7.63159    
   191.489      11.5587      8.06187    
   194.587      11.3549      8.51642    
   197.734      11.1765      8.99660    
   200.932      11.0418      9.49633    
   204.182      10.9248      9.99704    
   207.485      10.8286      10.5242    
   210.840      10.7719      11.0791    
   214.251      10.8188      11.6556    
   217.716      10.8711      12.1153    
   221.237      10.8959      12.5931    
   224.816      10.9268      13.0897    
   228.452      10.9771      13.6060    
   232.147      11.0689      14.1426    
   235.902      11.2035      14.6377    
   239.717      11.3288      15.1200    
   243.595      11.4535      15.6181    
   247.535      11.5993      16.1327    
   251.538      11.8006      16.6642    
   255.607      12.0193      17.1345    
   259.741      12.2277      17.6098    
   263.942      12.4476      18.0983    
   268.211      12.6922      18.6004    
   272.549      12.9864      19.1164    
   276.957      13.3576      19.5628    
   281.437      13.6892      19.9461    
   285.989      13.9869      20.3369    
   290.615      14.2836      20.7353    
   295.315      14.5851      21.1416    
   300.092      14.8975      21.5558    
   304.945      15.2276      21.9781    
   309.878      15.5942      22.4087    
   314.890      15.9831      22.7880    
   319.983      16.3610      23.1566    
   325.158      16.7341      23.5311    
   330.418      17.1169      23.9117    
   335.762      17.5147      24.2985    
   341.192      17.9349      24.6915    
   346.711      18.3896      25.0908    
   352.319      18.9274      25.4931    
   358.017      19.4563      25.7443    
   363.808      19.9485      25.9981    
   369.692      20.4207      26.2543    
   375.672      20.8904      26.5131    
   381.748      21.3637      26.7745    
   387.922      21.8467      27.0384    
   394.197      22.3477      27.3049    
   400.573      22.8913      27.5740    
   407.052      23.4689      27.7588    
   413.635      24.0088      27.9017    
   420.326      24.5150      28.0452    
   427.124      25.0126      28.1895    
   434.032      25.5070      28.3345    
   441.052      26.0028      28.4802    
   448.186      26.5151      28.6268    
   455.435      27.0441      28.7421    
   462.802      27.5482      28.8269    
   470.287      28.0361      28.9120    
   477.894      28.5159      28.9974    
   485.623      28.9911      29.0829    
   493.478      29.4640      29.1688    
   501.459      29.9364      29.2549    
   509.570      30.4139      29.3412    
   517.812      30.8927      29.4178    
   526.187      31.3674      29.4913    
   534.698      31.8415      29.5649    
   543.346      32.3172      29.6387    
   552.134      32.7965      29.7127    
   561.065      33.2820      29.7869    
   570.139      33.7827      29.8571    
   579.361      34.2806      29.9096    
   588.732      34.7773      29.9623    
   598.254      35.2774      30.0150    
   607.930      35.7840      30.0678    
   617.763      36.3004      30.1207    
   627.755      36.8307      30.1737    
   637.908      37.3825      30.2268    
   648.226      37.9798      30.2800    
   658.711      38.6353      30.2414    
   669.365      39.2385      30.1231    
   680.191      39.7825      30.0054    
   691.193      40.3066      29.8880    
   702.372      40.8159      29.7712    
   713.733      41.3141      29.6548    
   725.277      41.7984      29.5389    
   737.008      42.2802      29.4357    
   748.928      42.7658      29.3333    
   761.042      43.2546      29.2313    
   773.351      43.7488      29.1296    
   785.859      44.2504      29.0283    
   798.570      44.7971      28.9271    
   811.486      45.3349      28.7522    
   824.611      45.8436      28.5783    
   837.949      46.3465      28.4055    
   851.502      46.8517      28.2338    
   865.274      47.3632      28.0631    
   879.269      47.9574      27.8881    
   893.491      48.5208      27.5753    
   907.943      49.0146      27.2660    
   922.628      49.4847      26.9602    
   937.551      49.9423      26.6578    
   952.715      50.4046      26.3588    
   968.124      50.8667      26.0207    
   983.783      51.3012      25.6649    
   999.695      51.7118      25.3140    
   1015.86      52.1155      24.9678    
   1032.29      52.5732      24.6265    
   1048.99      53.0314      24.1729    
   1065.96      53.3975      23.6661    
   1083.20      53.7017      23.1699    
   1100.72      53.9644      22.6841    
   1118.52      54.1937      22.2085    
   1136.61      54.3940      21.7429    
   1155.00      54.5679      21.2865    
   1173.68      54.7162      20.8396    
   1192.66      54.8395      20.4021    
   1211.95      54.9309      19.9738    
   1231.55      54.9750      19.5719    
   1251.47      55.0316      19.2376    
   1271.72      55.1057      18.9090    
   1292.29      55.1874      18.5860    
   1313.19      55.2905      18.2686    
   1334.43      55.3836      17.8978    
   1356.01      55.4438      17.5237    
   1377.94      55.4747      17.1576    
   1400.23      55.4872      16.7990    
   1422.88      55.4558      16.4480    
   1445.89      55.4250      16.1608    
   1469.28      55.4335      15.8860    
   1493.04      55.5196      15.6136    
   1517.19      55.5549      15.1441    
   1541.73      55.4733      14.6844    
   1566.67      55.2816      14.2743    
   1592.01      55.0795      13.9739    
   1617.76      54.9140      13.6880    
   1643.92      54.7664      13.4012    
   1670.51      54.5596      13.0479    
   1697.53      54.2812      12.7438    
   1724.99      54.0229      12.5024    
   1752.89      53.7265      12.2124    
   1781.24      53.3700      12.0078    
   1810.05      53.0811      11.8536    
   1839.32      52.7486      11.5811    
   1869.07      52.3208      11.3598    
   1899.30      51.9272      11.2040    
   1930.02      51.5156      10.9604    
   1961.24      50.9557      10.6709    
   1992.96      50.2863      10.4467    
   2025.20      49.5537      10.2451    
   2057.95      48.6938      10.0148    
   2091.24      47.6322      9.77178    
   2125.06      46.2727      9.52110    
   2159.43      44.4424      9.28256    
   2194.36      41.7216      9.02538    
   2229.85      35.6915      11.1037    
   2265.92      35.3992      20.1927    
   2302.57      35.5671      21.3357    
   2339.81      37.0803      28.3053    
   2377.66      41.8200      29.9292    
   2416.11      45.3451      30.3415    
   2455.19      47.4191      30.1195    
   2494.90      49.1365      30.0334    
   2535.26      50.6780      29.7928    
   2576.26      51.8730      29.3224    
   2617.93      52.4894      28.9273    
   2660.27      53.2607      29.0345    
   2703.30      52.9018      28.6207    
   2747.03      52.9705      30.9060    
   2791.46      55.2863      31.8683    
   2836.61      57.3598      31.4084    
   2882.49      58.6589      31.0756    
   2929.11      59.9227      30.6543    
   2976.48      60.9171      30.0478    
   3024.63      61.7019      29.5033    
   3073.55      62.3899      29.0031    
   3123.26      62.7192      28.4478    
   3173.78      63.1577      28.7221    
   3225.11      64.2194      28.8967    
   3277.27      65.2597      28.3262    
   3330.28      66.0183      27.8026    
   3384.15      66.5074      27.2710    
   3438.88      66.9385      27.1058    
   3494.50      67.9305      26.9648    
   3551.02      68.8464      26.2268    
   3608.46      69.3468      25.6241    
   3666.82      69.8352      25.0676    
   3726.13      70.2945      24.5340    
   3786.40      70.7409      24.0263    
   3847.64      71.1653      23.4825    
   3909.87      71.5408      22.9482    
   3973.11      71.8852      22.4317    
   4037.38      72.2193      21.9280    
   4102.68      72.5193      21.4029    
   4169.03      72.8465      20.9204    
   4236.46      72.9783      20.2638    
   4304.98      73.0919      19.9740    
   4374.62      73.3624      19.5013    
   4445.37      73.5614      19.0807    
   4517.27      73.7577      18.6347    
   4590.33      73.9253      18.2079    
   4664.58      74.0788      17.7819    
   4740.03      74.2121      17.3679    
   4816.69      74.3252      16.9656    
   4894.60      74.4302      16.5884    
   4973.77      74.5183      16.2132    
   5054.21      74.6031      15.8827    
   5135.96      74.7209      15.5418    
   5219.03      74.7789      15.1636    
   5303.44      74.9028      14.9574    
   5389.22      75.0765      14.5361    
   5476.39      75.1224      14.1854    
   5564.97      75.1809      13.8440    
   5654.98      75.2285      13.5168    
   5746.44      75.2638      13.2024    
   5839.39      75.3322      12.9222    
   5933.83      75.3935      12.5542    
   6029.81      75.4192      12.2989    
   6127.33      75.4657      11.9837    
   6226.44      75.4815      11.6782    
   6327.15      75.4910      11.3838    
   6429.48      75.4957      11.0963    
   6533.48      75.4938      10.8152    
   6639.15      75.4857      10.5407    
   6746.54      75.4719      10.2725    
   6855.65      75.4525      10.0108    
   6966.54      75.4279      9.75519    
   7079.22      75.3981      9.50568    
   7193.72      75.3633      9.26191    
   7310.07      75.3233      9.02427    
   7428.31      75.2786      8.79262    
   7548.45      75.2295      8.56658    
   7670.54      75.1756      8.34582    
   7794.61      75.1167      8.13073    
   7920.68      75.0532      7.92114    
   8048.79      74.9851      7.71688    
   8178.98      74.9122      7.51777    
   8311.26      74.8344      7.32368    
   8445.69      74.7514      7.13442    
   8582.29      74.6629      6.95007    
   8721.11      74.5687      6.77055    
   8862.16      74.4684      6.59582    
   9005.50      74.3618      6.42578    
   9151.16      74.2482      6.26015    
   9299.17      74.1271      6.09888    
   9449.58      73.9974      5.94179    
   9602.42      73.8580      5.78882    
   9757.73      73.7077      5.63995    
   9915.55      73.5448      5.49507    
   10075.9      73.3671      5.35422    
   10238.9      73.1719      5.21720    
   10404.5      72.9555      5.08390    
   10572.8      72.7124      4.95425    
   10743.8      72.4353      4.82815    
   10917.6      72.1127      4.70552    
   11094.2      71.7263      4.58628    
   11273.6      71.2436      4.47034    
   11455.9      70.5981      4.35762    
   11641.2      69.6151      4.24804    
   11829.5      67.4461      4.14153    
   11918.6      54.2731      4.09265    
   11918.8      54.2736      10.2075    
   12020.8      67.8226      10.0588    
   12215.3      69.8923      9.78487    
   12412.8      70.8160      9.51839    
   12613.6      71.3557      9.25916    
   12817.6      71.6745      9.00701    
   13025.0      71.8212      8.76171    
   13235.6      71.7884      8.52311    
   13449.7      71.4804      8.29101    
   13667.2      70.2234      8.06522    
   13733.5      63.7471      7.99837    
   13733.7      63.7474      11.1563    
   13888.3      71.2206      10.9501    
   14112.9      72.1012      10.6611    
   14341.2      71.3028      10.3797    
   14352.7      69.3284      10.3658    
   14352.9      69.3299      11.9146    
   14573.1      73.2440      11.6510    
   14808.9      74.0231      11.3795    
   15048.4      74.5877      11.1126    
   15291.8      75.0435      10.8502    
   15539.1      75.4285      10.5924    
   15790.4      75.7620      10.3391    
   16045.8      76.0552      10.0905    
   16305.4      76.3159      9.84646    
   16569.1      76.5494      9.60705    
   16837.1      76.7597      9.37224    
   17109.4      76.9499      9.14202    
   17386.1      77.1223      8.91638    
   17667.4      77.2791      8.69527    
   17953.1      77.4218      8.47869    
   18243.5      77.5519      8.26660    
   18538.6      77.6705      8.05895    
   18838.4      77.7786      7.85571    
   19143.1      77.8772      7.65684    
   19452.7      77.9670      7.46228    
   19767.4      78.0487      7.27198    
   20087.1      78.1230      7.08590    
   20412.0      78.1904      6.90398    
   20742.1      78.2514      6.72616    
   21077.6      78.3065      6.55238    
   21418.5      78.3561      6.38260    
   21765.0      78.4006      6.21673    
   22117.0      78.4403      6.05473    
   22474.7      78.4756      5.89654    
   22838.2      78.5067      5.74207    
   23207.6      78.5339      5.59129    
   23583.0      78.5576      5.44410    
   23964.4      78.5778      5.30047    
   24352.0      78.5949      5.16031    
   24745.9      78.6091      5.02357    
   25146.2      78.6204      4.89018    
   25552.9      78.6292      4.76008    
   25966.2      78.6356      4.63319    
   26386.1      78.6398      4.50946    
   26812.9      78.6418      4.38882    
   27246.6      78.6418      4.27121    
   27687.3      78.6401      4.15657    
   28135.1      78.6366      4.04482    
   28590.2      78.6317      3.93592    
   29052.6      78.6259      3.82980    
   29522.5      78.6286      3.72639    
   30000.0      78.5768      3.62565    
