 bi, Z=83, (Energy (eV),f1,f2)
   10.0000     -9999.00      5.59475    
   10.1617     -9999.00      5.63587    
   10.3261     -9999.00      5.67729    
   10.4931     -9999.00      5.71901    
   10.6628     -9999.00      5.74574    
   10.8353     -9999.00      5.75640    
   11.0106     -9999.00      5.76707    
   11.1886     -9999.00      5.77776    
   11.3696     -9999.00      5.78847    
   11.5535     -9999.00      5.78340    
   11.7404     -9999.00      5.77387    
   11.9303     -9999.00      5.76434    
   12.1232     -9999.00      5.75484    
   12.3193     -9999.00      5.74534    
   12.5186     -9999.00      5.73586    
   12.7210     -9999.00      5.72406    
   12.9268     -9999.00      5.67153    
   13.1359     -9999.00      5.61948    
   13.3483     -9999.00      5.56792    
   13.5642     -9999.00      5.51682    
   13.7836     -9999.00      5.46620    
   14.0066     -9999.00      5.41060    
   14.2331     -9999.00      5.28850    
   14.4633     -9999.00      5.16914    
   14.6973     -9999.00      5.05248    
   14.9350     -9999.00      4.93846    
   15.1765     -9999.00      4.82700    
   15.4220     -9999.00      4.68707    
   15.6714     -9999.00      4.53829    
   15.9249     -9999.00      4.39424    
   16.1825     -9999.00      4.25475    
   16.4442     -9999.00      4.07125    
   16.7102     -9999.00      3.87241    
   16.9805     -9999.00      3.68328    
   17.2551     -9999.00      3.50388    
   17.5342     -9999.00      3.33365    
   17.8178     -9999.00      3.17167    
   18.1060     -9999.00      3.01758    
   18.3989     -9999.00      2.86324    
   18.6964     -9999.00      2.71582    
   18.9988     -9999.00      2.57599    
   19.3061     -9999.00      2.43805    
   19.6184     -9999.00      2.28909    
   19.9357     -9999.00      2.14923    
   20.2582     -9999.00      2.02042    
   20.5858     -9999.00      1.90047    
   20.9188     -9999.00      1.80769    
   21.2571     -9999.00      1.75975    
   21.6009     -9999.00      1.71309    
   21.9503     -9999.00      1.66769    
   22.3053     -9999.00      1.66217    
   22.6661     -9999.00      1.65667    
   23.0327     -9999.00      1.66869    
   23.4053     -9999.00      1.70941    
   23.7838     -9999.00      1.83603    
   24.1685     -9999.00      3.17679    
   24.5594     -9999.00      5.26044    
   24.9566     -9999.00      5.65001    
   25.3603     -9999.00      6.01014    
   25.7705     -9999.00      6.20781    
   26.1873     -9999.00      6.41200    
   26.6109     -9999.00      6.59613    
   27.0413     -9999.00      6.66920    
   27.4786     -9999.00      6.74309    
   27.9231     -9999.00      6.71156    
   28.3747     -9999.00      6.48194    
   28.8337     -9999.00      6.22131    
   29.3000      1.10812      5.95383    
   29.7739      1.19940      5.61307    
   30.2555     0.997764      5.11160    
   30.7449     0.643630      4.99396    
   31.2421     0.385943      4.92255    
   31.7475     0.136393      4.85011    
   32.2609    -0.159706      4.75922    
   32.7827    -0.573403      4.74686    
   33.3130    -0.938828      4.84900    
   33.8518     -1.30834      4.96323    
   34.3993     -1.67153      5.14702    
   34.9557     -2.04133      5.33761    
   35.5211     -2.45032      5.61053    
   36.0956     -2.80879      5.93962    
   36.6794     -3.15893      6.28799    
   37.2727     -3.54026      6.71997    
   37.8755     -3.84686      7.23537    
   38.4882     -4.09238      7.79031    
   39.1107     -4.25810      8.38453    
   39.7432     -4.38532      8.92134    
   40.3861     -4.50436      9.49251    
   41.0393     -4.58313      10.1003    
   41.7031     -4.58321      10.7469    
   42.3776     -4.50672      11.2982    
   43.0630     -4.47206      11.8304    
   43.7595     -4.43658      12.3877    
   44.4673     -4.37824      12.9713    
   45.1865     -4.26689      13.5588    
   45.9174     -4.15603      14.1222    
   46.6600     -4.03678      14.7091    
   47.4147     -3.89408      15.3203    
   48.1816     -3.70865      15.9570    
   48.9609     -3.44316      16.6201    
   49.7528     -3.14637      17.1727    
   50.5576     -2.87072      17.7383    
   51.3753     -2.58320      18.3224    
   52.2062     -2.26703      18.9258    
   53.0506     -1.89308      19.5491    
   53.9087     -1.43548      20.1059    
   54.7806     -1.01662      20.6226    
   55.6667    -0.603289      21.1526    
   56.5670    -0.167429      21.6961    
   57.4820     0.314131      22.2508    
   58.4117     0.813452      22.7585    
   59.3564      1.31789      23.2777    
   60.3165      1.84630      23.8087    
   61.2921      2.41282      24.3519    
   62.2834      3.04049      24.8796    
   63.2908      3.67879      25.3875    
   64.3145      4.34984      25.9057    
   65.3547      5.07097      26.4345    
   66.4118      5.87280      26.9741    
   67.4859      6.83904      27.5247    
   68.5775      7.83757      27.7893    
   69.6867      8.77022      28.0497    
   70.8138      9.71685      28.3124    
   71.9591      10.7503      28.5777    
   73.1230      11.8257      28.6580    
   74.3057      12.8413      28.7016    
   75.5076      13.8748      28.7452    
   76.7289      15.0291      28.7890    
   77.9699      16.2721      28.5065    
   79.2310      17.2923      28.0891    
   80.5125      18.2075      27.6778    
   81.8147      19.0627      27.2486    
   83.1380      19.8566      26.8172    
   84.4827      20.6099      26.3925    
   85.8491      21.3448      25.9746    
   87.2377      22.0742      25.5314    
   88.6487      22.7660      25.0774    
   90.0825      23.4398      24.6314    
   91.5395      24.1183      24.1934    
   93.0201      24.8288      23.7631    
   94.5246      25.6622      23.3405    
   96.0535      26.6134      22.5488    
   97.6071      27.2743      21.6101    
   99.1858      27.7446      20.7107    
   100.790      28.1233      19.8486    
   102.420      28.4341      19.0224    
   104.077      28.6957      18.2306    
   105.760      28.9276      17.4717    
   107.471      29.1749      16.7444    
   109.209      29.3953      15.8866    
   110.975      29.4902      15.0370    
   112.770      29.4978      14.2328    
   114.594      29.4539      13.4716    
   116.448      29.3717      12.7511    
   118.331      29.2688      12.0692    
   120.245      29.1271      11.3780    
   122.190      28.9363      10.7249    
   124.166      28.7068      10.1092    
   126.175      28.4459      9.52883    
   128.215      28.1550      8.98179    
   130.289      27.8310      8.46617    
   132.397      27.4613      7.98016    
   134.538      26.9804      7.58635    
   136.714      26.5968      7.35935    
   138.925      26.2764      7.13913    
   141.172      25.9899      6.92551    
   143.456      25.7252      6.71828    
   145.776      25.4798      6.51725    
   148.134      25.2663      6.32225    
   150.530      25.0556      6.06358    
   152.964      24.8090      5.80346    
   155.439      24.5354      5.55451    
   157.953      24.2446      5.31624    
   160.507      23.9365      5.08829    
   163.103      23.6106      4.87127    
   165.742      23.2641      4.66351    
   168.422      22.8888      4.46460    
   171.146      22.4382      4.28088    
   173.915      21.9971      4.22036    
   176.727      21.5792      4.16070    
   179.586      21.1385      4.13836    
   182.491      20.7351      4.16129    
   185.442      20.3458      4.18435    
   188.442      19.9362      4.21782    
   191.489      19.5378      4.28349    
   194.587      19.1282      4.35020    
   197.734      18.7200      4.46653    
   200.932      18.3185      4.58786    
   204.182      17.8843      4.72224    
   207.485      17.4668      4.93718    
   210.840      17.0713      5.16189    
   214.251      16.6743      5.40210    
   217.716      16.2889      5.67319    
   221.237      15.9097      5.95788    
   224.816      15.5149      6.25686    
   228.452      15.0854      6.63646    
   232.147      14.7159      7.09375    
   235.902      14.4218      7.56174    
   239.717      14.1425      8.03066    
   243.595      13.8802      8.52868    
   247.535      13.6524      9.05756    
   251.538      13.5101      9.61926    
   255.607      13.3842      10.0879    
   259.741      13.2343      10.5737    
   263.942      13.0861      11.0830    
   268.211      12.9484      11.6168    
   272.549      12.8282      12.1763    
   276.957      12.7321      12.7628    
   281.437      12.6801      13.3680    
   285.989      12.6404      13.9689    
   290.615      12.6197      14.5968    
   295.315      12.6284      15.2530    
   300.092      12.6791      15.9386    
   304.945      12.7897      16.6550    
   309.878      13.0255      17.4037    
   314.890      13.3084      17.9677    
   319.983      13.5510      18.5180    
   325.158      13.7720      19.0851    
   330.418      14.0083      19.6696    
   335.762      14.2750      20.2720    
   341.192      14.6115      20.8928    
   346.711      14.9897      21.4105    
   352.319      15.3421      21.9057    
   358.017      15.6803      22.4124    
   363.808      16.0345      22.9308    
   369.692      16.4353      23.4612    
   375.672      16.8986      23.9359    
   381.748      17.3179      24.3396    
   387.922      17.7114      24.7501    
   394.197      18.0973      25.1675    
   400.573      18.4826      25.5919    
   407.052      18.8630      26.0235    
   413.635      19.2563      26.4833    
   420.326      19.6729      26.9520    
   427.124      20.1128      27.4290    
   434.032      20.5800      27.9145    
   441.052      21.0809      28.4085    
   448.186      21.6619      28.9113    
   455.435      22.2816      29.3194    
   462.802      22.8700      29.6927    
   470.287      23.4535      30.0707    
   477.894      24.0485      30.4535    
   485.623      24.6663      30.8412    
   493.478      25.3211      31.2338    
   501.459      26.0639      31.6181    
   509.570      26.7985      31.8778    
   517.812      27.5174      32.1397    
   526.187      28.2460      32.4037    
   534.698      29.0050      32.6699    
   543.346      29.9153      32.9383    
   552.134      30.8341      32.9523    
   561.065      31.6373      32.9118    
   570.139      32.4095      32.8642    
   579.361      33.1353      32.7636    
   588.732      33.8173      32.6485    
   598.254      34.4572      32.5242    
   607.930      35.0647      32.3983    
   617.763      35.6477      32.2744    
   627.755      36.2197      32.1503    
   637.908      36.7777      32.0059    
   648.226      37.3103      31.8363    
   658.711      37.7937      31.6506    
   669.365      38.2328      31.4662    
   680.191      38.6227      31.2764    
   691.193      38.9316      31.0889    
   702.372      39.0790      30.9528    
   713.733      39.1629      31.0932    
   725.277      39.4522      31.4277    
   737.008      39.8959      31.7660    
   748.928      40.4608      32.1078    
   761.042      41.1751      32.4447    
   773.351      42.0989      32.6938    
   785.859      43.1424      32.6485    
   798.570      43.9905      32.3598    
   811.486      44.7087      32.0735    
   824.611      45.3623      31.7899    
   837.949      45.9784      31.5088    
   851.502      46.5668      31.2124    
   865.274      47.1247      30.8973    
   879.269      47.6319      30.5664    
   893.491      48.0938      30.2391    
   907.943      48.5095      29.9153    
   922.628      48.8364      29.5949    
   937.551      49.1540      29.4329    
   952.715      49.5087      29.3138    
   968.124      49.9373      29.2321    
   983.783      50.4325      29.1508    
   999.695      51.0058      29.0409    
   1015.86      51.7037      28.9006    
   1032.29      52.3369      28.4669    
   1048.99      52.8628      28.0364    
   1065.96      53.3168      27.6114    
   1083.20      53.7294      27.1925    
   1100.72      54.1093      26.7795    
   1118.52      54.4619      26.3723    
   1136.61      54.7906      25.9709    
   1155.00      55.0983      25.5756    
   1173.68      55.3878      25.1862    
   1192.66      55.6599      24.8017    
   1211.95      55.9159      24.4228    
   1231.55      56.1570      24.0494    
   1251.47      56.3839      23.6812    
   1271.72      56.5976      23.3185    
   1292.29      56.7993      22.9612    
   1313.19      56.9891      22.6085    
   1334.43      57.1674      22.2610    
   1356.01      57.3354      21.9187    
   1377.94      57.4931      21.5806    
   1400.23      57.6413      21.2474    
   1422.88      57.7809      20.9192    
   1445.89      57.9138      20.5955    
   1469.28      58.0434      20.2726    
   1493.04      58.1707      19.9485    
   1517.19      58.2811      19.6048    
   1541.73      58.3695      19.2634    
   1566.67      58.4392      18.9277    
   1592.01      58.4936      18.5967    
   1617.76      58.5331      18.2711    
   1643.92      58.5589      17.9511    
   1670.51      58.5716      17.6363    
   1697.53      58.5714      17.3265    
   1724.99      58.5652      17.0214    
   1752.89      58.5439      16.7074    
   1781.24      58.5009      16.3939    
   1810.05      58.4357      16.0819    
   1839.32      58.3477      15.7758    
   1869.07      58.2387      15.4754    
   1899.30      58.1082      15.1805    
   1930.02      57.9548      14.8906    
   1961.24      57.7769      14.6058    
   1992.96      57.5695      14.3258    
   2025.20      57.3450      14.0599    
   2057.95      57.0898      13.7800    
   2091.24      56.7907      13.5035    
   2125.06      56.4472      13.2301    
   2159.43      56.0535      12.9601    
   2194.36      55.6001      12.6921    
   2229.85      55.0762      12.4287    
   2265.92      54.4678      12.1683    
   2302.57      53.7528      11.9106    
   2339.81      52.9020      11.6568    
   2377.66      51.8689      11.4055    
   2416.11      50.5794      11.1583    
   2455.19      48.8991      10.9141    
   2494.90      46.5395      10.6732    
   2535.26      42.6488      10.4354    
   2576.26      28.1189      10.2018    
   2579.50      9.13918      10.1838    
   2579.70      9.14246      27.1839    
   2617.93      40.3363      26.5725    
   2660.27      41.4670      25.9213    
   2687.50      23.2248      25.5164    
   2687.70      23.2489      37.0195    
   2703.30      42.2812      36.6982    
   2747.03      49.1143      35.8220    
   2791.46      52.6339      34.9676    
   2836.61      55.1051      34.1335    
   2882.49      56.9928      33.3201    
   2929.11      58.4818      32.5276    
   2976.48      59.6577      31.7549    
   3024.63      60.5490      31.0012    
   3073.55      61.1241      30.2668    
   3123.26      61.1824      29.5496    
   3173.78      57.8803      28.8501    
   3176.80      52.7624      28.8092    
   3177.00      52.7669      33.5350    
   3225.11      62.8945      32.7897    
   3277.27      64.7491      32.0124    
   3330.28      66.0397      31.2547    
   3384.15      67.0599      30.5161    
   3438.88      67.8991      29.7951    
   3494.50      68.5932      29.0920    
   3551.02      69.1500      28.4073    
   3608.46      69.5418      27.7403    
   3666.82      69.5695      27.0886    
   3696.20      66.9359      26.7703    
   3696.40      66.9379      28.3750    
   3726.13      70.1110      28.0453    
   3786.40      71.1324      27.3966    
   3847.64      71.7773      26.7648    
   3909.87      72.2333      26.1474    
   3973.11      72.3902      25.5451    
   3999.00      70.8760      25.3053    
   3999.20      70.8774      26.2702    
   4037.38      72.9817      25.9350    
   4102.68      73.7290      25.3787    
   4169.03      74.2927      24.8312    
   4236.46      74.7772      24.2907    
   4304.98      75.2085      23.7588    
   4374.62      75.6002      23.2360    
   4445.37      75.9584      22.7203    
   4517.27      76.2872      22.2137    
   4590.33      76.5910      21.7155    
   4664.58      76.8712      21.2252    
   4740.03      77.1296      20.7437    
   4816.69      77.3686      20.2709    
   4894.60      77.5896      19.8067    
   4973.77      77.7937      19.3506    
   5054.21      77.9818      18.9033    
   5135.96      78.1552      18.4643    
   5219.03      78.3146      18.0338    
   5303.44      78.4610      17.6115    
   5389.22      78.5948      17.1975    
   5476.39      78.7170      16.7919    
   5564.97      78.8282      16.3946    
   5654.98      78.9290      16.0053    
   5746.44      79.0199      15.6238    
   5839.39      79.1013      15.2503    
   5933.83      79.1738      14.8848    
   6029.81      79.2380      14.5272    
   6127.33      79.2940      14.1769    
   6226.44      79.3423      13.8345    
   6327.15      79.3834      13.4995    
   6429.48      79.4176      13.1719    
   6533.48      79.4452      12.8515    
   6639.15      79.4665      12.5383    
   6746.54      79.4818      12.2323    
   6855.65      79.4914      11.9329    
   6966.54      79.4953      11.6407    
   7079.22      79.4941      11.3551    
   7193.72      79.4878      11.0760    
   7310.07      79.4765      10.8033    
   7428.31      79.4605      10.5373    
   7548.45      79.4401      10.2774    
   7670.54      79.4151      10.0236    
   7794.61      79.3859      9.77602    
   7920.68      79.3527      9.53421    
   8048.79      79.3153      9.29804    
   8178.98      79.2737      9.06776    
   8311.26      79.2283      8.84305    
   8445.69      79.1792      8.62377    
   8582.29      79.1259      8.40951    
   8721.11      79.0686      8.20086    
   8862.16      79.0075      7.99743    
   9005.50      78.9424      7.79859    
   9151.16      78.8731      7.60504    
   9299.17      78.7998      7.41595    
   9449.58      78.7220      7.23172    
   9602.42      78.6397      7.05212    
   9757.73      78.5529      6.87721    
   9915.55      78.4638      6.70650    
   10075.9      78.3690      6.53426    
   10238.9      78.2629      6.36673    
   10404.5      78.1491      6.20381    
   10572.8      78.0268      6.04538    
   10743.8      77.8953      5.89136    
   10917.6      77.7535      5.74164    
   11094.2      77.6000      5.59611    
   11273.6      77.4329      5.45469    
   11455.9      77.2500      5.31727    
   11641.2      77.0479      5.18377    
   11829.5      76.8221      5.05407    
   12020.8      76.5665      4.92810    
   12215.3      76.2715      4.80576    
   12412.8      75.9224      4.68697    
   12613.6      75.4940      4.57162    
   12817.6      74.9378      4.45965    
   13025.0      74.1399      4.35095    
   13235.6      72.7017      4.24546    
   13418.5      58.2887      4.15727    
   13418.7      58.2892      10.2218    
   13449.7      69.4057      10.1806    
   13667.2      73.4755      9.89838    
   13888.3      74.6788      9.62401    
   14112.9      75.3581      9.35725    
   14341.2      75.7850      9.09789    
   14573.1      76.0453      8.84571    
   14808.9      76.1675      8.60054    
   15048.4      76.1447      8.36215    
   15291.8      75.9175      8.13039    
   15539.1      75.2196      7.90505    
   15711.0      68.0671      7.75415    
   15711.2      68.0679      10.8698    
   15790.4      74.5726      10.7894    
   16045.8      75.9945      10.5370    
   16305.4      76.1589      10.2906    
   16387.4      73.4280      10.2147    
   16387.6      73.4285      11.5832    
   16569.1      77.0720      11.4028    
   16837.1      77.9083      11.1451    
   17109.4      78.4815      10.8912    
   17386.1      78.9368      10.6412    
   17667.4      79.3186      10.3950    
   17953.1      79.6481      10.1528    
   18243.5      79.9373      9.91464    
   18538.6      80.1944      9.68053    
   18838.4      80.4245      9.45049    
   19143.1      80.6320      9.22457    
   19452.7      80.8196      9.00276    
   19767.4      80.9901      8.78506    
   20087.1      81.1452      8.57149    
   20412.0      81.2866      8.36203    
   20742.1      81.4156      8.15668    
   21077.6      81.5334      7.95540    
   21418.5      81.6411      7.75819    
   21765.0      81.7394      7.56501    
   22117.0      81.8291      7.37584    
   22474.7      81.9110      7.19065    
   22838.2      81.9855      7.00938    
   23207.6      82.0533      6.83202    
   23583.0      82.1148      6.65850    
   23964.4      82.1705      6.48879    
   24352.0      82.2208      6.32284    
   24745.9      82.2661      6.16061    
   25146.2      82.3066      6.00204    
   25552.9      82.3428      5.84708    
   25966.2      82.3748      5.69568    
   26386.1      82.4030      5.54777    
   26812.9      82.4277      5.40332    
   27246.6      82.4489      5.26226    
   27687.3      82.4671      5.12453    
   28135.1      82.4823      4.99008    
   28590.2      82.4947      4.85885    
   29052.6      82.5046      4.73079    
   29522.5      82.5120      4.60582    
   30000.0      82.5172      4.48391    
