 br, Z=35, (Energy (eV),f1,f2)
   10.0000     -9999.00      5.16199    
   10.1617     -9999.00      5.31855    
   10.3261     -9999.00      5.47986    
   10.4931     -9999.00      5.64606    
   10.6628     -9999.00      5.81730    
   10.8353     -9999.00      5.99373    
   11.0106     -9999.00      6.17552    
   11.1886     -9999.00      6.36281    
   11.3696     -9999.00      6.55580    
   11.5535     -9999.00      6.75463    
   11.7404     -9999.00      6.95949    
   11.9303     -9999.00      7.17057    
   12.1232     -9999.00      7.38804    
   12.3193     -9999.00      7.58343    
   12.5186     -9999.00      7.77469    
   12.7210     -9999.00      7.97079    
   12.9268     -9999.00      8.15805    
   13.1359     -9999.00      8.33656    
   13.3483     -9999.00      8.51899    
   13.5642     -9999.00      8.70540    
   13.7836     -9999.00      8.85695    
   14.0066     -9999.00      9.00806    
   14.2331     -9999.00      9.16174    
   14.4633     -9999.00      9.31805    
   14.6973     -9999.00      9.47702    
   14.9350     -9999.00      9.54582    
   15.1765     -9999.00      9.60017    
   15.4220     -9999.00      9.65483    
   15.6714     -9999.00      9.70981    
   15.9249     -9999.00      9.76508    
   16.1825     -9999.00      9.82068    
   16.4442     -9999.00      9.87659    
   16.7102     -9999.00      9.93283    
   16.9805     -9999.00      9.98937    
   17.2551     -9999.00      9.99258    
   17.5342     -9999.00      9.97751    
   17.8178     -9999.00      9.96245    
   18.1060     -9999.00      9.94743    
   18.3989     -9999.00      9.93243    
   18.6964     -9999.00      9.91745    
   18.9988     -9999.00      9.90249    
   19.3061     -9999.00      9.82616    
   19.6184     -9999.00      9.72846    
   19.9357     -9999.00      9.63175    
   20.2582     -9999.00      9.53599    
   20.5858     -9999.00      9.44119    
   20.9188     -9999.00      9.34434    
   21.2571     -9999.00      9.13918    
   21.6009     -9999.00      8.93851    
   21.9503     -9999.00      8.74225    
   22.3053     -9999.00      8.55031    
   22.6661     -9999.00      8.36258    
   23.0327     -9999.00      8.17896    
   23.4053     -9999.00      7.99939    
   23.7838     -9999.00      7.82375    
   24.1685     -9999.00      7.65197    
   24.5594     -9999.00      7.48396    
   24.9566     -9999.00      7.31964    
   25.3603     -9999.00      7.15499    
   25.7705     -9999.00      6.84731    
   26.1873     -9999.00      6.55286    
   26.6109     -9999.00      6.27107    
   27.0413     -9999.00      6.00140    
   27.4786     -9999.00      5.74332    
   27.9231     -9999.00      5.49634    
   28.3747     -9999.00      5.25999    
   28.8337     -9999.00      5.03379    
   29.3000      10.3082      4.81733    
   29.7739      10.3170      4.61018    
   30.2555      10.3222      4.41193    
   30.7449      10.3268      4.22220    
   31.2421      10.3374      4.04064    
   31.7475      10.3725      3.84576    
   32.2609      10.3733      3.60661    
   32.7827      10.3417      3.38232    
   33.3130      10.2919      3.17199    
   33.8518      10.2304      2.97474    
   34.3993      10.1602      2.78975    
   34.9557      10.0832      2.61626    
   35.5211      10.0011      2.45357    
   36.0956      9.91476      2.30099    
   36.6794      9.82528      2.15790    
   37.2727      9.73335      2.02370    
   37.8755      9.63964      1.89786    
   38.4882      9.54522      1.77983    
   39.1107      9.45197      1.66750    
   39.7432      9.35472      1.55775    
   40.3861      9.25390      1.45522    
   41.0393      9.15104      1.35945    
   41.7031      9.04651      1.26997    
   42.3776      8.93986      1.18639    
   43.0630      8.82982      1.11133    
   43.7595      8.72291      1.04371    
   44.4673      8.61713     0.980199    
   45.1865      8.51107     0.920558    
   45.9174      8.40366     0.864544    
   46.6600      8.29610     0.815397    
   47.4147      8.18957     0.769296    
   48.1816      8.08253     0.725801    
   48.9609      7.97365     0.684766    
   49.7528      7.85998     0.647698    
   50.5576      7.74794     0.621275    
   51.3753      7.63802     0.595928    
   52.2062      7.52717     0.571616    
   53.0506      7.41120     0.549811    
   53.9087      7.29633     0.538688    
   54.7806      7.18307     0.527790    
   55.6667      7.06722     0.519232    
   56.5670      6.95124     0.513192    
   57.4820      6.83022     0.510186    
   58.4117      6.71055     0.512216    
   59.3564      6.58978     0.514254    
   60.3165      6.46503     0.516291    
   61.2921      6.33410     0.518279    
   62.2834      6.19362     0.520274    
   63.2908      6.03782     0.526423    
   64.3145      5.87086     0.537133    
   65.3547      5.68301     0.548060    
   66.4118      5.44005     0.558161    
   67.4859      5.01881     0.654814    
   68.5775      4.70397      1.05610    
   69.6867      4.78236      1.53791    
   70.8138      4.94458      1.80131    
   71.9591      5.10409      1.85264    
   73.1230      5.28662      1.90543    
   74.3057      5.17992      1.59532    
   75.5076      5.00758      1.62740    
   76.7289      4.87591      1.67037    
   77.9699      4.73650      1.71446    
   79.2310      4.58138      1.79608    
   80.5125      4.44235      1.89596    
   81.8147      4.31084      2.00140    
   83.1380      4.17885      2.11271    
   84.4827      4.04002      2.23270    
   85.8491      3.90447      2.37166    
   87.2377      3.77359      2.51927    
   88.6487      3.64515      2.67606    
   90.0825      3.51865      2.84262    
   91.5395      3.39434      3.01954    
   93.0201      3.27238      3.20747    
   94.5246      3.15339      3.40710    
   96.0535      3.03751      3.61915    
   97.6071      2.92520      3.84635    
   99.1858      2.82119      4.08996    
   100.790      2.72718      4.34901    
   102.420      2.64538      4.62445    
   104.077      2.58033      4.91735    
   105.760      2.53929      5.22879    
   107.471      2.54628      5.55997    
   109.209      2.60514      5.82589    
   110.975      2.63093      6.06508    
   112.770      2.63820      6.31409    
   114.594      2.64529      6.57333    
   116.448      2.65608      6.84321    
   118.331      2.67457      7.12417    
   120.245      2.70524      7.41667    
   122.190      2.75992      7.72117    
   124.166      2.83661      7.99945    
   126.175      2.90459      8.27373    
   128.215      2.97084      8.55742    
   130.289      3.04474      8.85084    
   132.397      3.12990      9.15431    
   134.538      3.23125      9.46820    
   136.714      3.35636      9.79285    
   138.925      3.53026      10.1286    
   141.172      3.73627      10.3839    
   143.456      3.91159      10.6203    
   145.776      4.06866      10.8620    
   148.134      4.22427      11.1093    
   150.530      4.38223      11.3621    
   152.964      4.54667      11.6208    
   155.439      4.72856      11.8853    
   157.953      4.91473      12.1279    
   160.507      5.09557      12.3736    
   163.103      5.27781      12.6242    
   165.742      5.46392      12.8799    
   168.422      5.65508      13.1408    
   171.146      5.84792      13.4070    
   173.915      6.04807      13.6943    
   176.727      6.27170      13.9949    
   179.586      6.51812      14.3021    
   182.491      6.78961      14.6161    
   185.442      7.09257      14.9370    
   188.442      7.44074      15.2649    
   191.489      7.88928      15.5943    
   194.587      8.33263      15.7401    
   197.734      8.73032      15.8873    
   200.932      9.10381      16.0359    
   204.182      9.47423      16.1858    
   207.485      9.84936      16.3371    
   210.840      10.2387      16.4899    
   214.251      10.6965      16.6195    
   217.716      11.1175      16.6621    
   221.237      11.4972      16.7047    
   224.816      11.8630      16.7475    
   228.452      12.2205      16.7904    
   232.147      12.5732      16.8334    
   235.902      12.9238      16.8765    
   239.717      13.2751      16.9197    
   243.595      13.6305      16.9630    
   247.535      13.9997      17.0041    
   251.538      14.3663      17.0202    
   255.607      14.7286      17.0363    
   259.741      15.0923      17.0523    
   263.942      15.4627      17.0685    
   268.211      15.8465      17.0848    
   272.549      16.2576      17.1008    
   276.957      16.7337      17.0615    
   281.437      17.1778      16.9530    
   285.989      17.5746      16.8014    
   290.615      17.9352      16.6453    
   295.315      18.2686      16.4908    
   300.092      18.5842      16.3374    
   304.945      18.8852      16.1853    
   309.878      19.1737      16.0347    
   314.890      19.4517      15.8857    
   319.983      19.7208      15.7381    
   325.158      19.9815      15.5915    
   330.418      20.2349      15.4466    
   335.762      20.4822      15.3030    
   341.192      20.7237      15.1606    
   346.711      20.9603      15.0198    
   352.319      21.1930      14.8803    
   358.017      21.4222      14.7419    
   363.808      21.6486      14.6046    
   369.692      21.8730      14.4687    
   375.672      22.0977      14.3345    
   381.748      22.3249      14.2009    
   387.922      22.5591      14.0653    
   394.197      22.8086      13.9238    
   400.573      23.0567      13.7416    
   407.052      23.2741      13.5455    
   413.635      23.4736      13.3527    
   420.326      23.6612      13.1620    
   427.124      23.8391      12.9740    
   434.032      24.0092      12.7887    
   441.052      24.1730      12.6061    
   448.186      24.3351      12.4250    
   455.435      24.4908      12.2407    
   462.802      24.6393      12.0545    
   470.287      24.7788      11.8687    
   477.894      24.9102      11.6857    
   485.623      25.0356      11.5059    
   493.478      25.1560      11.3289    
   501.459      25.2719      11.1544    
   509.570      25.3840      10.9830    
   517.812      25.4946      10.8134    
   526.187      25.6020      10.6437    
   534.698      25.7057      10.4730    
   543.346      25.8038      10.3033    
   552.134      25.9004      10.1366    
   561.065      25.9943      9.96328    
   570.139      26.0778      9.78887    
   579.361      26.1535      9.61983    
   588.732      26.2247      9.45455    
   598.254      26.2927      9.29263    
   607.930      26.3579      9.13351    
   617.763      26.4211      8.97713    
   627.755      26.4854      8.82280    
   637.908      26.5496      8.66345    
   648.226      26.6088      8.49574    
   658.711      26.6523      8.32399    
   669.365      26.6794      8.15581    
   680.191      26.6930      8.00884    
   691.193      26.7124      7.87810    
   702.372      26.7481      7.75250    
   713.733      26.7890      7.61430    
   725.277      26.8194      7.46864    
   737.008      26.8425      7.32583    
   748.928      26.8608      7.18574    
   761.042      26.8758      7.04823    
   773.351      26.8886      6.91233    
   785.859      26.8985      6.77544    
   798.570      26.9017      6.63833    
   811.486      26.8992      6.50390    
   824.611      26.8920      6.37222    
   837.949      26.8802      6.24321    
   851.502      26.8642      6.11717    
   865.274      26.8443      5.99398    
   879.269      26.8208      5.87352    
   893.491      26.7936      5.75539    
   907.943      26.7627      5.63967    
   922.628      26.7284      5.52634    
   937.551      26.6901      5.41402    
   952.715      26.6474      5.30367    
   968.124      26.6000      5.19529    
   983.783      26.5481      5.08921    
   999.695      26.4921      4.98481    
   1015.86      26.4323      4.88204    
   1032.29      26.3662      4.77730    
   1048.99      26.2927      4.67393    
   1065.96      26.2110      4.57191    
   1083.20      26.1212      4.47206    
   1100.72      26.0230      4.37440    
   1118.52      25.9160      4.27890    
   1136.61      25.7995      4.18557    
   1155.00      25.6727      4.09423    
   1173.68      25.5345      4.00483    
   1192.66      25.3836      3.91747    
   1211.95      25.2186      3.83198    
   1231.55      25.0377      3.74829    
   1251.47      24.8383      3.66604    
   1271.72      24.6174      3.58518    
   1292.29      24.3707      3.50559    
   1313.19      24.0935      3.42786    
   1334.43      23.7797      3.35181    
   1356.01      23.4205      3.27736    
   1377.94      23.0039      3.20470    
   1400.23      22.5125      3.13364    
   1422.88      21.9194      3.06414    
   1445.89      21.1806      2.99614    
   1469.28      20.2158      2.93108    
   1493.04      18.8585      2.86962    
   1517.19      16.6528      2.81872    
   1541.73      10.8963      2.77001    
   1549.80     -8.00939      2.75434    
   1550.00     -8.00155      16.3564    
   1566.67      14.3906      16.1344    
   1592.01      18.5751      15.8069    
   1617.76      20.7653      15.4860    
   1643.92      22.2477      15.1717    
   1670.51      23.3454      14.8636    
   1697.53      24.1806      14.5619    
   1724.99      24.7915      14.2664    
   1752.89      25.1151      13.9766    
   1781.24      23.4156      13.6927    
   1781.90      22.0893      13.6862    
   1782.10      22.0949      15.7617    
   1810.05      26.4421      15.4199    
   1839.32      27.4629      15.0753    
   1869.07      28.2262      14.7383    
   1899.30      28.8609      14.4087    
   1930.02      29.4112      14.0865    
   1961.24      29.8997      13.7716    
   1992.96      30.3367      13.4637    
   2025.20      30.7417      13.1705    
   2057.95      31.1155      12.8665    
   2091.24      31.4551      12.5672    
   2125.06      31.7653      12.2728    
   2159.43      32.0507      11.9839    
   2194.36      32.3138      11.6995    
   2229.85      32.5565      11.4205    
   2265.92      32.7811      11.1469    
   2302.57      32.9891      10.8783    
   2339.81      33.1818      10.6147    
   2377.66      33.3601      10.3561    
   2416.11      33.5253      10.1027    
   2455.19      33.6783      9.85422    
   2494.90      33.8199      9.61099    
   2535.26      33.9512      9.37299    
   2576.26      34.0727      9.13942    
   2617.93      34.1848      8.91091    
   2660.27      34.2884      8.68762    
   2703.30      34.3844      8.46894    
   2747.03      34.4724      8.25470    
   2791.46      34.5536      8.04560    
   2836.61      34.6279      7.84066    
   2882.49      34.6961      7.64096    
   2929.11      34.7588      7.44520    
   2976.48      34.8156      7.25383    
   3024.63      34.8674      7.06723    
   3073.55      34.9143      6.88467    
   3123.26      34.9566      6.70639    
   3173.78      34.9945      6.53229    
   3225.11      35.0286      6.36274    
   3277.27      35.0590      6.19664    
   3330.28      35.0856      6.03460    
   3384.15      35.1088      5.87652    
   3438.88      35.1289      5.72225    
   3494.50      35.1461      5.57163    
   3551.02      35.1603      5.42476    
   3608.46      35.1720      5.28146    
   3666.82      35.1812      5.14165    
   3726.13      35.1880      5.00538    
   3786.40      35.1927      4.87240    
   3847.64      35.1953      4.74275    
   3909.87      35.1959      4.61636    
   3973.11      35.1948      4.49313    
   4037.38      35.1919      4.37301    
   4102.68      35.1874      4.25594    
   4169.03      35.1815      4.14184    
   4236.46      35.1741      4.03063    
   4304.98      35.1654      3.92231    
   4374.62      35.1555      3.81666    
   4445.37      35.1444      3.71380    
   4517.27      35.1323      3.61361    
   4590.33      35.1191      3.51593    
   4664.58      35.1049      3.42088    
   4740.03      35.0900      3.32825    
   4816.69      35.0742      3.23800    
   4894.60      35.0576      3.15011    
   4973.77      35.0402      3.06455    
   5054.21      35.0222      2.98128    
   5135.96      35.0037      2.90015    
   5219.03      34.9845      2.82110    
   5303.44      34.9647      2.74416    
   5389.22      34.9444      2.66931    
   5476.39      34.9237      2.59642    
   5564.97      34.9025      2.52550    
   5654.98      34.8809      2.45641    
   5746.44      34.8589      2.38918    
   5839.39      34.8366      2.32373    
   5933.83      34.8139      2.25999    
   6029.81      34.7908      2.19793    
   6127.33      34.7673      2.13764    
   6226.44      34.7437      2.07891    
   6327.15      34.7197      2.02176    
   6429.48      34.6954      1.96608    
   6533.48      34.6708      1.91204    
   6639.15      34.6460      1.85931    
   6746.54      34.6209      1.80808    
   6855.65      34.5955      1.75823    
   6966.54      34.5699      1.70968    
   7079.22      34.5439      1.66245    
   7193.72      34.5177      1.61655    
   7310.07      34.4911      1.57178    
   7428.31      34.4642      1.52832    
   7548.45      34.4370      1.48603    
   7670.54      34.4094      1.44482    
   7794.61      34.3815      1.40479    
   7920.68      34.3531      1.36582    
   8048.79      34.3243      1.32790    
   8178.98      34.2950      1.29101    
   8311.26      34.2652      1.25513    
   8445.69      34.2348      1.22022    
   8582.29      34.2037      1.18625    
   8721.11      34.1720      1.15322    
   8862.16      34.1395      1.12107    
   9005.50      34.1061      1.08980    
   9151.16      34.0718      1.05937    
   9299.17      34.0364      1.02978    
   9449.58      33.9998      1.00099    
   9602.42      33.9620     0.972971    
   9757.73      33.9226     0.945717    
   9915.55      33.8815     0.919210    
   10075.9      33.8385     0.893416    
   10238.9      33.7932     0.868322    
   10404.5      33.7455     0.843909    
   10572.8      33.6948     0.820157    
   10743.8      33.6408     0.797050    
   10917.6      33.5827     0.774568    
   11094.2      33.5200     0.752695    
   11273.6      33.4516     0.731414    
   11455.9      33.3763     0.710710    
   11641.2      33.2925     0.690565    
   11829.5      33.1981     0.670965    
   12020.8      33.0899     0.651895    
   12215.3      32.9635     0.633339    
   12412.8      32.8116     0.615284    
   12613.6      32.6225     0.597716    
   12817.6      32.3740     0.580621    
   13025.0      32.0171     0.563987    
   13235.6      31.4020     0.547800    
   13449.7      29.0525     0.532049    
   13473.6      23.2529     0.530333    
   13473.8      23.2532      3.86204    
   13667.2      31.3642      3.77868    
   13888.3      32.2279      3.68700    
   14112.9      32.7278      3.59694    
   14341.2      33.0826      3.50852    
   14573.1      33.3575      3.42173    
   14808.9      33.5811      3.33658    
   15048.4      33.7688      3.25306    
   15291.8      33.9297      3.17118    
   15539.1      34.0697      3.09092    
   15790.4      34.1929      3.01229    
   16045.8      34.3023      2.93528    
   16305.4      34.4001      2.85986    
   16569.1      34.4880      2.78604    
   16837.1      34.5672      2.71379    
   17109.4      34.6390      2.64311    
   17386.1      34.7042      2.57397    
   17667.4      34.7635      2.50636    
   17953.1      34.8175      2.44026    
   18243.5      34.8668      2.37565    
   18538.6      34.9118      2.31251    
   18838.4      34.9529      2.25083    
   19143.1      34.9905      2.19058    
   19452.7      35.0248      2.13174    
   19767.4      35.0562      2.07429    
   20087.1      35.0848      2.01820    
   20412.0      35.1109      1.96345    
   20742.1      35.1347      1.91003    
   21077.6      35.1563      1.85791    
   21418.5      35.1759      1.80706    
   21765.0      35.1937      1.75746    
   22117.0      35.2098      1.70909    
   22474.7      35.2243      1.66192    
   22838.2      35.2373      1.61594    
   23207.6      35.2489      1.57111    
   23583.0      35.2593      1.52742    
   23964.4      35.2684      1.48484    
   24352.0      35.2765      1.44335    
   24745.9      35.2835      1.40293    
   25146.2      35.2896      1.36355    
   25552.9      35.2947      1.32520    
   25966.2      35.2990      1.28784    
   26386.1      35.3026      1.25146    
   26812.9      35.3054      1.21604    
   27246.6      35.3075      1.18155    
   27687.3      35.3090      1.14797    
   28135.1      35.3100      1.11529    
   28590.2      35.3104      1.08348    
   29052.6      35.3105      1.05252    
   29522.5      35.3130      1.02239    
   30000.0      35.2999     0.993072    
