 cd, Z=48, (Energy (eV),f1,f2)
   10.0000     -9999.00     0.400039    
   10.1617     -9999.00     0.418419    
   10.3261     -9999.00     0.437644    
   10.4931     -9999.00     0.457752    
   10.6628     -9999.00     0.493615    
   10.8353     -9999.00     0.536851    
   11.0106     -9999.00     0.592578    
   11.1886     -9999.00     0.663282    
   11.3696     -9999.00     0.742420    
   11.5535     -9999.00     0.861255    
   11.7404     -9999.00     0.993746    
   11.9303     -9999.00      1.04408    
   12.1232     -9999.00      1.09696    
   12.3193     -9999.00      1.15252    
   12.5186     -9999.00      1.21090    
   12.7210     -9999.00      1.27223    
   12.9268     -9999.00      1.31700    
   13.1359     -9999.00      1.35518    
   13.3483     -9999.00      1.39447    
   13.5642     -9999.00      1.43490    
   13.7836     -9999.00      1.46675    
   14.0066     -9999.00      1.49503    
   14.2331     -9999.00      1.52386    
   14.4633     -9999.00      1.55324    
   14.6973     -9999.00      1.58319    
   14.9350     -9999.00      1.61386    
   15.1765     -9999.00      1.65189    
   15.4220     -9999.00      1.69082    
   15.6714     -9999.00      1.73068    
   15.9249     -9999.00      1.77146    
   16.1825     -9999.00      1.81322    
   16.4442     -9999.00      1.85595    
   16.7102     -9999.00      1.89969    
   16.9805     -9999.00      1.94447    
   17.2551     -9999.00      1.99030    
   17.5342     -9999.00      2.03720    
   17.8178     -9999.00      2.08522    
   18.1060     -9999.00      2.13437    
   18.3989     -9999.00      2.18467    
   18.6964     -9999.00      2.23616    
   18.9988     -9999.00      2.30335    
   19.3061     -9999.00      2.38300    
   19.6184     -9999.00      2.46541    
   19.9357     -9999.00      2.55067    
   20.2582     -9999.00      2.63888    
   20.5858     -9999.00      2.73013    
   20.9188     -9999.00      2.82455    
   21.2571     -9999.00      2.93634    
   21.6009     -9999.00      3.06457    
   21.9503     -9999.00      3.19841    
   22.3053     -9999.00      3.33808    
   22.6661     -9999.00      3.48385    
   23.0327     -9999.00      3.63599    
   23.4053     -9999.00      3.79478    
   23.7838     -9999.00      3.96050    
   24.1685     -9999.00      4.10362    
   24.5594     -9999.00      4.24965    
   24.9566     -9999.00      4.40088    
   25.3603     -9999.00      4.55749    
   25.7705     -9999.00      4.71967    
   26.1873     -9999.00      4.88762    
   26.6109     -9999.00      5.06155    
   27.0413     -9999.00      5.21645    
   27.4786     -9999.00      5.37271    
   27.9231     -9999.00      5.53366    
   28.3747     -9999.00      5.69942    
   28.8337     -9999.00      5.87016    
   29.3000      1.92132      6.04600    
   29.7739      1.95870      6.22712    
   30.2555      2.00347      6.41366    
   30.7449      2.05887      6.60579    
   31.2421      2.13188      6.80368    
   31.7475      2.22995      6.97608    
   32.2609      2.30955      7.13371    
   32.7827      2.38386      7.29491    
   33.3130      2.45750      7.45974    
   33.8518      2.53262      7.62830    
   34.3993      2.61077      7.80067    
   34.9557      2.69354      7.97693    
   35.5211      2.78329      8.15718    
   36.0956      2.88673      8.34150    
   36.6794      2.99810      8.50370    
   37.2727      3.10092      8.66572    
   37.8755      3.20155      8.83082    
   38.4882      3.30326      8.99907    
   39.1107      3.40710      9.17052    
   39.7432      3.51390      9.34524    
   40.3861      3.62436      9.52329    
   41.0393      3.73938      9.70474    
   41.7031      3.85954      9.88864    
   42.3776      3.98448      10.0757    
   43.0630      4.11523      10.2662    
   43.7595      4.25280      10.4604    
   44.4673      4.39831      10.6583    
   45.1865      4.55323      10.8599    
   45.9174      4.71968      11.0653    
   46.6600      4.90458      11.2746    
   47.4147      5.12536      11.4757    
   48.1816      5.33801      11.6323    
   48.9609      5.53753      11.7910    
   49.7528      5.73522      11.9518    
   50.5576      5.93432      12.1149    
   51.3753      6.13673      12.2802    
   52.2062      6.34396      12.4478    
   53.0506      6.55752      12.6176    
   53.9087      6.77962      12.7898    
   54.7806      7.01556      12.9599    
   55.6667      7.25391      13.1213    
   56.5670      7.49600      13.2847    
   57.4820      7.74478      13.4501    
   58.4117      8.00243      13.6176    
   59.3564      8.27088      13.7872    
   60.3165      8.55256      13.9589    
   61.2921      8.85083      14.1327    
   62.2834      9.17288      14.3087    
   63.2908      9.53797      14.4869    
   64.3145      9.95094      14.5893    
   65.3547      10.3170      14.6480    
   66.4118      10.6651      14.7069    
   67.4859      11.0074      14.7660    
   68.5775      11.3503      14.8254    
   69.6867      11.7005      14.8850    
   70.8138      12.0630      14.9281    
   71.9591      12.4157      14.9596    
   73.1230      12.7672      14.9911    
   74.3057      13.1222      15.0227    
   75.5076      13.4842      15.0544    
   76.7289      13.8580      15.0861    
   77.9699      14.2558      15.1179    
   79.2310      14.6616      15.1063    
   80.5125      15.0612      15.0932    
   81.8147      15.4642      15.0801    
   83.1380      15.8791      15.0671    
   84.4827      16.3126      15.0540    
   85.8491      16.7804      15.0410    
   87.2377      17.3388      14.9809    
   88.6487      17.8510      14.8342    
   90.0825      18.3398      14.6890    
   91.5395      18.8475      14.5451    
   93.0201      19.4316      14.4027    
   94.5246      20.0338      14.0815    
   96.0535      20.5494      13.7289    
   97.6071      21.0436      13.3852    
   99.1858      21.5688      13.0501    
   100.790      22.2626      12.6636    
   102.420      22.7938      11.8623    
   104.077      23.1195      11.1116    
   105.760      23.3209      10.4085    
   107.471      23.4530      9.74983    
   109.209      23.5384      9.13287    
   110.975      23.6002      8.55495    
   112.770      23.6927      8.01359    
   114.594      23.7887      7.33221    
   116.448      23.7072      6.62555    
   118.331      23.5298      5.98701    
   120.245      23.2935      5.40999    
   122.190      23.0109      4.88859    
   124.166      22.6816      4.41745    
   126.175      22.2585      4.05148    
   128.215      21.9290      3.82757    
   130.289      21.6526      3.61604    
   132.397      21.4053      3.41620    
   134.538      21.1833      3.22739    
   136.714      21.0226      3.04903    
   138.925      20.8329      2.74069    
   141.172      20.5504      2.45221    
   143.456      20.1828      2.22983    
   145.776      19.8503      2.09547    
   148.134      19.5098      1.97671    
   150.530      19.1967      1.93078    
   152.964      18.9087      1.88592    
   155.439      18.6126      1.85429    
   157.953      18.3385      1.85193    
   160.507      18.0729      1.84957    
   163.103      17.7711      1.87250    
   165.742      17.5124      1.96692    
   168.422      17.2849      2.07018    
   171.146      17.0891      2.18710    
   173.915      16.9210      2.31063    
   176.727      16.7910      2.44113    
   179.586      16.6867      2.53742    
   182.491      16.5750      2.62155    
   185.442      16.4641      2.70847    
   188.442      16.3579      2.79827    
   191.489      16.2576      2.89105    
   194.587      16.1642      2.98691    
   197.734      16.0787      3.08594    
   200.932      16.0030      3.18826    
   204.182      15.9445      3.29397    
   207.485      15.8913      3.37628    
   210.840      15.8354      3.45963    
   214.251      15.7794      3.54503    
   217.716      15.7269      3.63255    
   221.237      15.6790      3.72222    
   224.816      15.6375      3.81410    
   228.452      15.6054      3.90825    
   232.147      15.5936      4.00473    
   235.902      15.5913      4.06298    
   239.717      15.5744      4.11172    
   243.595      15.5467      4.16105    
   247.535      15.5156      4.21097    
   251.538      15.4826      4.26148    
   255.607      15.4491      4.31260    
   259.741      15.4169      4.36434    
   263.942      15.3884      4.41670    
   268.211      15.3902      4.45524    
   272.549      15.3677      4.45725    
   276.957      15.3205      4.45925    
   281.437      15.2616      4.46126    
   285.989      15.1920      4.46327    
   290.615      15.1123      4.46528    
   295.315      15.0227      4.46729    
   300.092      14.9234      4.46931    
   304.945      14.8146      4.47132    
   309.878      14.6990      4.47314    
   314.890      14.5684      4.46266    
   319.983      14.4194      4.45221    
   325.158      14.2517      4.44178    
   330.418      14.0649      4.43137    
   335.762      13.8570      4.42099    
   341.192      13.6247      4.41063    
   346.711      13.3650      4.40440    
   352.319      13.0786      4.40091    
   358.017      12.7606      4.39743    
   363.808      12.4025      4.39396    
   369.692      11.9930      4.39048    
   375.672      11.4980      4.39609    
   381.748      10.9667      4.47478    
   387.922      10.3913      4.55488    
   394.197      9.74172      4.63641    
   400.573      8.98721      4.71940    
   405.100      8.68686      4.77842    
   405.300      8.62236      4.32288    
   407.052      7.79045      4.52168    
   413.635      6.36909      5.34514    
   420.326      5.18791      6.31858    
   427.124      4.09315      7.46926    
   434.032      3.05345      8.82954    
   441.052      2.10524      10.4375    
   448.186      1.27547      12.3383    
   455.435     0.664412      14.5700    
   462.802     0.351553      17.1909    
   470.287     0.601950      20.2831    
   477.894      2.21338      23.6835    
   485.623      4.91570      26.0154    
   493.478      7.88153      26.9206    
   501.459      10.1460      27.0075    
   509.570      11.8344      27.0947    
   517.812      13.4846      27.1821    
   526.187      14.9340      26.8391    
   534.698      16.0908      26.4624    
   543.346      17.0042      26.0910    
   552.134      17.7134      25.7248    
   561.065      18.1179      25.5428    
   570.139      18.6004      25.6342    
   579.361      19.2047      25.7259    
   588.732      19.8241      25.8179    
   598.254      20.4560      25.9103    
   607.930      21.1062      26.0029    
   617.763      21.7794      26.0606    
   627.755      22.4329      26.0875    
   637.908      23.0654      26.1144    
   648.226      23.6940      26.1413    
   658.711      24.3233      26.1683    
   669.365      24.9584      26.1952    
   680.191      25.6242      26.2222    
   691.193      26.3133      26.2000    
   702.372      26.9713      26.1349    
   713.733      27.6117      26.0700    
   725.277      28.2499      26.0052    
   737.008      28.8935      25.9406    
   748.928      29.5995      25.8762    
   761.042      30.2999      25.7016    
   773.351      30.9503      25.5118    
   785.859      31.5858      25.3234    
   798.570      32.2274      25.1364    
   811.486      32.9195      24.9507    
   824.611      33.6579      24.6144    
   837.949      34.2929      24.1751    
   851.502      34.8168      23.7519    
   865.274      35.2937      23.3468    
   879.269      35.7447      22.9583    
   893.491      36.1738      22.5762    
   907.943      36.5842      22.2003    
   922.628      36.9847      21.8306    
   937.551      37.3674      21.4466    
   952.715      37.7296      21.0642    
   968.124      38.0705      20.6841    
   983.783      38.3970      20.3109    
   999.695      38.7153      19.9399    
   1015.86      39.0343      19.5709    
   1032.29      39.3302      19.1670    
   1048.99      39.5983      18.7666    
   1065.96      39.8394      18.3698    
   1083.20      40.0597      17.9813    
   1100.72      40.2627      17.6012    
   1118.52      40.4507      17.2292    
   1136.61      40.6249      16.8649    
   1155.00      40.7866      16.5083    
   1173.68      40.9366      16.1592    
   1192.66      41.0758      15.8176    
   1211.95      41.2048      15.4831    
   1231.55      41.3242      15.1557    
   1251.47      41.4343      14.8357    
   1271.72      41.5360      14.5231    
   1292.29      41.6305      14.2179    
   1313.19      41.7180      13.9188    
   1334.43      41.7984      13.6260    
   1356.01      41.8720      13.3394    
   1377.94      41.9390      13.0589    
   1400.23      41.9995      12.7843    
   1422.88      42.0533      12.5155    
   1445.89      42.1000      12.2524    
   1469.28      42.1378      11.9969    
   1493.04      42.1666      11.7499    
   1517.19      42.1947      11.5219    
   1541.73      42.2253      11.3002    
   1566.67      42.2571      11.0828    
   1592.01      42.2882      10.8697    
   1617.76      42.3185      10.6606    
   1643.92      42.3476      10.4554    
   1670.51      42.3759      10.2544    
   1697.53      42.4036      10.0571    
   1724.99      42.4379      9.86351    
   1752.89      42.4701      9.66015    
   1781.24      42.4943      9.45640    
   1810.05      42.5113      9.25350    
   1839.32      42.5211      9.05474    
   1869.07      42.5262      8.86031    
   1899.30      42.5272      8.67031    
   1930.02      42.5247      8.48435    
   1961.24      42.5191      8.30235    
   1992.96      42.5084      8.12413    
   2025.20      42.5055      7.95651    
   2057.95      42.5010      7.77577    
   2091.24      42.4867      7.59693    
   2125.06      42.4672      7.42037    
   2159.43      42.4425      7.24551    
   2194.36      42.4127      7.07294    
   2229.85      42.3777      6.90212    
   2265.92      42.3374      6.73347    
   2302.57      42.2914      6.56637    
   2339.81      42.2393      6.40135    
   2377.66      42.1813      6.23853    
   2416.11      42.1168      6.07751    
   2455.19      42.0453      5.91851    
   2494.90      41.9667      5.76148    
   2535.26      41.8803      5.60617    
   2576.26      41.7852      5.45285    
   2617.93      41.6811      5.30151    
   2660.27      41.5670      5.15212    
   2703.30      41.4420      5.00438    
   2747.03      41.3048      4.85853    
   2791.46      41.1540      4.71465    
   2836.61      40.9880      4.57268    
   2882.49      40.8048      4.43238    
   2929.11      40.6017      4.29386    
   2976.48      40.3752      4.15725    
   3024.63      40.1214      4.02248    
   3073.55      39.8348      3.88941    
   3123.26      39.5076      3.75791    
   3173.78      39.1292      3.62831    
   3225.11      38.6842      3.50057    
   3277.27      38.1488      3.37448    
   3330.28      37.4821      3.24981    
   3384.15      36.6063      3.12696    
   3438.88      35.3409      3.00594    
   3494.50      33.0285      2.88655    
   3537.40      17.0228      2.79895    
   3537.60      17.0232      11.0389    
   3551.02      29.8592      10.9769    
   3608.46      33.8701      10.7176    
   3666.82      34.7193      10.4648    
   3726.13      30.6730      10.2180    
   3726.90      28.0714      10.2148    
   3727.10      28.0766      14.0187    
   3786.40      36.5710      13.6680    
   3847.64      37.9410      13.3205    
   3909.87      38.7346      12.9812    
   3973.11      39.2115      12.6508    
   4017.90      35.8107      12.4250    
   4018.10      35.8164      14.4626    
   4037.38      39.2057      14.3611    
   4102.68      40.7582      14.0258    
   4169.03      41.6577      13.6966    
   4236.46      42.3572      13.3730    
   4304.98      42.9426      13.0563    
   4374.62      43.4487      12.7442    
   4445.37      43.8935      12.4379    
   4517.27      44.2898      12.1378    
   4590.33      44.6459      11.8430    
   4664.58      44.9676      11.5539    
   4740.03      45.2595      11.2705    
   4816.69      45.5254      10.9927    
   4894.60      45.7682      10.7205    
   4973.77      45.9904      10.4537    
   5054.21      46.1939      10.1926    
   5135.96      46.3807      9.93705    
   5219.03      46.5522      9.68676    
   5303.44      46.7098      9.44205    
   5389.22      46.8545      9.20244    
   5476.39      46.9874      8.96818    
   5564.97      47.1097      8.73917    
   5654.98      47.2218      8.51506    
   5746.44      47.3246      8.29613    
   5839.39      47.4188      8.08211    
   5933.83      47.5049      7.87307    
   6029.81      47.5836      7.66898    
   6127.33      47.6555      7.46934    
   6226.44      47.7208      7.27449    
   6327.15      47.7800      7.08413    
   6429.48      47.8335      6.89861    
   6533.48      47.8819      6.71713    
   6639.15      47.9252      6.54022    
   6746.54      47.9640      6.36756    
   6855.65      47.9985      6.19912    
   6966.54      48.0288      6.03463    
   7079.22      48.0553      5.87430    
   7193.72      48.0783      5.71804    
   7310.07      48.0981      5.56564    
   7428.31      48.1148      5.41673    
   7548.45      48.1284      5.27177    
   7670.54      48.1392      5.13036    
   7794.61      48.1476      4.99278    
   7920.68      48.1536      4.85838    
   8048.79      48.1573      4.72739    
   8178.98      48.1589      4.59991    
   8311.26      48.1585      4.47548    
   8445.69      48.1561      4.35458    
   8582.29      48.1523      4.23661    
   8721.11      48.1468      4.12167    
   8862.16      48.1397      4.00959    
   9005.50      48.1310      3.90067    
   9151.16      48.1213      3.79455    
   9299.17      48.1104      3.69100    
   9449.58      48.0980      3.59015    
   9602.42      48.0847      3.49233    
   9757.73      48.0707      3.39687    
   9915.55      48.0555      3.30356    
   10075.9      48.0392      3.21306    
   10238.9      48.0222      3.12496    
   10404.5      48.0045      3.03921    
   10572.8      47.9861      2.95573    
   10743.8      47.9671      2.87448    
   10917.6      47.9474      2.79540    
   11094.2      47.9271      2.71844    
   11273.6      47.9063      2.64354    
   11455.9      47.8851      2.57066    
   11641.2      47.8633      2.49973    
   11829.5      47.8411      2.43072    
   12020.8      47.8185      2.36357    
   12215.3      47.7955      2.29823    
   12412.8      47.7721      2.23466    
   12613.6      47.7483      2.17281    
   12817.6      47.7242      2.11264    
   13025.0      47.6998      2.05410    
   13235.6      47.6751      1.99716    
   13449.7      47.6500      1.94176    
   13667.2      47.6247      1.88787    
   13888.3      47.5990      1.83545    
   14112.9      47.5731      1.78447    
   14341.2      47.5468      1.73487    
   14573.1      47.5202      1.68663    
   14808.9      47.4933      1.63971    
   15048.4      47.4661      1.59407    
   15291.8      47.4384      1.54968    
   15539.1      47.4105      1.50651    
   15790.4      47.3821      1.46452    
   16045.8      47.3533      1.42369    
   16305.4      47.3240      1.38397    
   16569.1      47.2942      1.34535    
   16837.1      47.2639      1.30778    
   17109.4      47.2330      1.27125    
   17386.1      47.2014      1.23572    
   17667.4      47.1691      1.20117    
   17953.1      47.1360      1.16757    
   18243.5      47.1020      1.13489    
   18538.6      47.0670      1.10311    
   18838.4      47.0308      1.07221    
   19143.1      46.9934      1.04216    
   19452.7      46.9546      1.01293    
   19767.4      46.9142     0.984506    
   20087.1      46.8720     0.956865    
   20412.0      46.8276     0.929983    
   20742.1      46.7808     0.903842    
   21077.6      46.7313     0.878419    
   21418.5      46.6784     0.853696    
   21765.0      46.6217     0.829651    
   22117.0      46.5604     0.806268    
   22474.7      46.4936     0.783528    
   22838.2      46.4200     0.761412    
   23207.6      46.3380     0.739903    
   23583.0      46.2453     0.718984    
   23964.4      46.1387     0.698640    
   24352.0      46.0133     0.678853    
   24745.9      45.8615     0.659610    
   25146.2      45.6697     0.640893    
   25552.9      45.4117     0.622689    
   25966.2      45.0240     0.604983    
   26386.1      44.2697     0.587761    
   26711.1      36.4239     0.574954    
   26711.3      36.4240      3.65393    
   26812.9      43.2295      3.63215    
   27246.6      44.9251      3.54155    
   27687.3      45.5586      3.45277    
   28135.1      45.9614      3.36578    
   28590.2      46.2575      3.28058    
   29052.6      46.4909      3.19715    
   29522.5      46.6827      3.11548    
   30000.0      46.8446      3.03556    
