 ce, Z=58, (Energy (eV),f1,f2)
   10.0000     -9999.00      1.28369    
   10.1617     -9999.00      1.26389    
   10.3261     -9999.00      1.24441    
   10.4931     -9999.00      1.22522    
   10.6628     -9999.00      1.20632    
   10.8353     -9999.00      1.18772    
   11.0106     -9999.00      1.16941    
   11.1886     -9999.00      1.15138    
   11.3696     -9999.00      1.13362    
   11.5535     -9999.00      1.11614    
   11.7404     -9999.00      1.09893    
   11.9303     -9999.00      1.08199    
   12.1232     -9999.00      1.06530    
   12.3193     -9999.00      1.04888    
   12.5186     -9999.00      1.03270    
   12.7210     -9999.00      1.01678    
   12.9268     -9999.00      1.00676    
   13.1359     -9999.00      1.00038    
   13.3483     -9999.00     0.994040    
   13.5642     -9999.00     0.987739    
   13.7836     -9999.00     0.981479    
   14.0066     -9999.00     0.956007    
   14.2331     -9999.00     0.926295    
   14.4633     -9999.00     0.897506    
   14.6973     -9999.00     0.869612    
   14.9350     -9999.00     0.847175    
   15.1765     -9999.00     0.826038    
   15.4220     -9999.00     0.805430    
   15.6714     -9999.00     0.785336    
   15.9249     -9999.00     0.768039    
   16.1825     -9999.00     0.751660    
   16.4442     -9999.00     0.743108    
   16.7102     -9999.00     0.738426    
   16.9805     -9999.00     0.733773    
   17.2551     -9999.00     0.730488    
   17.5342     -9999.00     0.732590    
   17.8178     -9999.00     0.734698    
   18.1060     -9999.00     0.738342    
   18.3989     -9999.00     0.752939    
   18.6964     -9999.00     0.767824    
   18.9988     -9999.00     0.783004    
   19.3061     -9999.00     0.802333    
   19.6184     -9999.00     0.830937    
   19.9357     -9999.00     0.860562    
   20.2582     -9999.00     0.896253    
   20.5858     -9999.00     0.947545    
   20.9188     -9999.00      1.02453    
   21.2571     -9999.00      1.16405    
   21.6009     -9999.00      1.39197    
   21.9503     -9999.00      1.74286    
   22.3053     -9999.00      2.28855    
   22.6661     -9999.00      4.30971    
   23.0327     -9999.00      9.11122    
   23.4053     -9999.00      14.5318    
   23.7838     -9999.00      16.0458    
   24.1685     -9999.00      16.5067    
   24.5594     -9999.00      16.9807    
   24.9566     -9999.00      17.2142    
   25.3603     -9999.00      17.3637    
   25.7705     -9999.00      17.3370    
   26.1873     -9999.00      17.2087    
   26.6109     -9999.00      17.0812    
   27.0413     -9999.00      16.7834    
   27.4786     -9999.00      16.3590    
   27.9231     -9999.00      15.9484    
   28.3747     -9999.00      15.6504    
   28.8337     -9999.00      15.3579    
   29.3000      6.50335      14.8611    
   29.7739      7.10772      14.3580    
   30.2555      7.61895      13.8174    
   30.7449      8.02179      13.2928    
   31.2421      8.31620      12.8326    
   31.7475      8.63469      12.4573    
   32.2609      8.97915      12.0929    
   32.7827      9.38161      11.6884    
   33.3130      9.69364      11.1537    
   33.8518      9.91000      10.6435    
   34.3993      10.0639      10.1566    
   34.9557      10.1627      9.69192    
   35.5211      10.2173      9.28777    
   36.0956      10.2739      8.91349    
   36.6794      10.3212      8.55430    
   37.2727      10.3548      8.20959    
   37.8755      10.3763      7.88064    
   38.4882      10.3880      7.56485    
   39.1107      10.3923      7.26173    
   39.7432      10.3976      6.97075    
   40.3861      10.4049      6.65688    
   41.0393      10.3737      6.34253    
   41.7031      10.3210      6.04304    
   42.3776      10.2584      5.74055    
   43.0630      10.1567      5.44034    
   43.7595      10.0158      5.15583    
   44.4673      9.81063      4.92603    
   45.1865      9.64935      4.76665    
   45.9174      9.51254      4.61243    
   46.6600      9.38009      4.46320    
   47.4147      9.24814      4.32622    
   48.1816      9.12409      4.19684    
   48.9609      9.00556      4.07133    
   49.7528      8.89692      3.94432    
   50.5576      8.77542      3.79592    
   51.3753      8.63525      3.65311    
   52.2062      8.47691      3.51567    
   53.0506      8.28851      3.39671    
   53.9087      8.11200      3.32109    
   54.7806      7.94671      3.24716    
   55.6667      7.78404      3.17488    
   56.5670      7.61756      3.10420    
   57.4820      7.44291      3.04472    
   58.4117      7.27496      2.99326    
   59.3564      7.10899      2.94085    
   60.3165      6.93875      2.88830    
   61.2921      6.76334      2.83668    
   62.2834      6.58184      2.78599    
   63.2908      6.39292      2.73621    
   64.3145      6.19492      2.68731    
   65.3547      5.98497      2.63929    
   66.4118      5.75503      2.59902    
   67.4859      5.52492      2.57732    
   68.5775      5.29235      2.55580    
   69.6867      5.05292      2.53446    
   70.8138      4.80378      2.51330    
   71.9591      4.54302      2.49231    
   73.1230      4.26911      2.47150    
   74.3057      3.98183      2.44907    
   75.5076      3.67324      2.42325    
   76.7289      3.34083      2.39770    
   77.9699      2.98068      2.37242    
   79.2310      2.58111      2.34741    
   80.5125      2.15135      2.35757    
   81.8147      1.70930      2.37468    
   83.1380      1.24169      2.39192    
   84.4827     0.740091      2.40928    
   85.8491     0.196062      2.42677    
   87.2377    -0.403368      2.44439    
   88.6487     -1.07043      2.48602    
   90.0825     -1.78002      2.54704    
   91.5395     -2.55276      2.60955    
   93.0201     -3.40814      2.67360    
   94.5246     -4.36862      2.73922    
   96.0535     -5.46622      2.80645    
   97.6071     -6.76345      2.87533    
   99.1858     -8.30804      3.05961    
   100.790     -10.1154      3.30269    
   102.420     -12.6727      3.76703    
   104.077     -15.5564      4.90637    
   105.760     -15.5814      7.99694    
   107.471     -18.1102      6.24227    
   109.209     -22.3317      9.00118    
   110.975     -24.1257      11.5426    
   112.770     -28.6290      11.5388    
   114.594     -37.9832      13.7904    
   116.448     -49.6006      23.7825    
   118.331     -57.9189      43.3983    
   120.245     -53.9566      68.7867    
   122.190     -33.7369      93.1156    
   124.166     -9.00118      98.0932    
   126.175      12.2736      95.0335    
   128.215      29.4122      87.0895    
   130.289      39.1517      75.2961    
   132.397      43.9352      65.6724    
   134.538      46.9576      58.2625    
   136.714      49.4896      52.0451    
   138.925      52.2876      45.7895    
   141.172      53.2541      38.8770    
   143.456      53.1098      32.5996    
   145.776      51.4669      27.0090    
   148.134      49.3648      23.3210    
   150.530      47.7809      20.3879    
   152.964      46.2356      17.6445    
   155.439      44.5231      15.2704    
   157.953      42.7963      13.5541    
   160.507      41.4034      12.1804    
   163.103      40.2236      10.9459    
   165.742      39.0982      9.65548    
   168.422      37.9165      8.49304    
   171.146      36.5982      7.53994    
   173.915      35.4502      6.88520    
   176.727      34.4729      6.28735    
   179.586      33.5430      5.69091    
   182.491      32.6204      5.15087    
   185.442      31.7132      4.68219    
   188.442      30.7682      4.25721    
   191.489      29.8576      4.03762    
   194.587      29.0651      3.86686    
   197.734      28.3105      3.70334    
   200.932      27.5924      3.61478    
   204.182      26.8981      3.53602    
   207.485      26.2512      3.54711    
   210.840      25.6349      3.55900    
   214.251      25.0457      3.65161    
   217.716      24.5274      3.77563    
   221.237      24.0647      3.90386    
   224.816      23.6340      4.03644    
   228.452      23.2130      4.17353    
   232.147      22.8177      4.35787    
   235.902      22.4642      4.55720    
   239.717      22.1409      4.76566    
   243.595      21.8261      4.99190    
   247.535      21.5531      5.25598    
   251.538      21.3244      5.53405    
   255.607      21.1385      5.82681    
   259.741      20.9942      6.12237    
   263.942      20.8921      6.43040    
   268.211      20.8783      6.74348    
   272.549      20.8894      6.98933    
   276.957      20.9663      7.24415    
   281.437      21.0423      7.36660    
   285.989      21.0779      7.48640    
   290.615      21.1092      7.60815    
   295.315      21.1566      7.69196    
   300.092      21.1265      7.76522    
   304.945      21.1082      7.90299    
   309.878      21.1116      8.04320    
   314.890      21.1284      8.18591    
   319.983      21.1584      8.33114    
   325.158      21.2030      8.47894    
   330.418      21.2655      8.62938    
   335.762      21.3830      8.76771    
   341.192      21.4871      8.85153    
   346.711      21.5728      8.93616    
   352.319      21.6601      9.02160    
   358.017      21.7551      9.10785    
   363.808      21.8743      9.19492    
   369.692      22.0011      9.22717    
   375.672      22.1050      9.24453    
   381.748      22.1899      9.26192    
   387.922      22.2672      9.27934    
   394.197      22.3386      9.29679    
   400.573      22.4056      9.31428    
   407.052      22.4691      9.33179    
   413.635      22.5296      9.34934    
   420.326      22.5877      9.36788    
   427.124      22.6451      9.38702    
   434.032      22.7023      9.40618    
   441.052      22.7602      9.42539    
   448.186      22.8201      9.44464    
   455.435      22.8836      9.46393    
   462.802      22.9807      9.47220    
   470.287      23.0562      9.43558    
   477.894      23.1038      9.39909    
   485.623      23.1395      9.36275    
   493.478      23.1650      9.32654    
   501.459      23.1815      9.29048    
   509.570      23.1898      9.25455    
   517.812      23.1904      9.21877    
   526.187      23.1838      9.18312    
   534.698      23.1705      9.14762    
   543.346      23.1615      9.11163    
   552.134      23.1382      9.05222    
   561.065      23.0938      8.99318    
   570.139      23.0341      8.93453    
   579.361      22.9599      8.87626    
   588.732      22.8711      8.81838    
   598.254      22.7675      8.76087    
   607.930      22.6484      8.70373    
   617.763      22.5134      8.64697    
   627.755      22.3619      8.59058    
   637.908      22.1938      8.53456    
   648.226      22.0097      8.47890    
   658.711      21.8139      8.42361    
   669.365      21.6391      8.35664    
   680.191      21.3980      8.19468    
   691.193      21.0793      8.03585    
   702.372      20.6934      7.88010    
   713.733      20.2415      7.72738    
   725.277      19.7209      7.57761    
   737.008      19.1187      7.42369    
   748.928      18.4171      7.27026    
   761.042      17.5998      7.11999    
   773.351      16.6430      6.97282    
   785.859      15.5116      6.82871    
   798.570      14.1541      6.68756    
   811.486      12.4911      6.54934    
   824.611      10.3916      6.41397    
   837.949      7.61762      6.28140    
   851.502      3.66553      6.15157    
   865.274     -2.86705      6.02442    
   879.269     -20.2880      5.89991    
   883.700     -69.4070      5.86143    
   883.900     -69.3767      46.6439    
   893.491     -9.26426      46.0804    
   907.943      3.31586      45.2553    
   922.628      10.0534      44.4449    
   937.551      14.7446      43.6490    
   952.715      18.3661      42.8674    
   968.124      21.3225      42.0998    
   983.783      23.8217      41.3459    
   999.695      25.9859      40.6055    
   1015.86      27.8956      39.8784    
   1032.29      29.6384      39.1467    
   1048.99      31.0836      38.3723    
   1065.96      32.3957      37.7379    
   1083.20      33.6505      37.1140    
   1100.72      34.8152      36.5005    
   1118.52      35.9013      35.8970    
   1136.61      36.9177      35.3036    
   1155.00      37.8726      34.7199    
   1173.68      38.7733      34.1459    
   1192.66      39.6264      33.5814    
   1211.95      40.4388      33.0262    
   1231.55      41.2175      32.4802    
   1251.47      41.9711      31.9433    
   1271.72      42.7116      31.4152    
   1292.29      43.3973      30.8958    
   1313.19      44.7145      30.3850    
   1334.43      44.9431      28.5651    
   1356.01      44.8518      28.2390    
   1377.94      45.1037      27.9164    
   1400.23      45.4502      27.5975    
   1422.88      45.8466      27.2824    
   1445.89      46.2903      26.9709    
   1469.28      46.7715      26.6401    
   1493.04      47.3242      26.2787    
   1517.19      47.8475      25.7796    
   1541.73      48.2809      25.2704    
   1566.67      48.6716      24.7714    
   1592.01      49.0318      24.2818    
   1617.76      49.3673      23.8020    
   1643.92      49.6827      23.3321    
   1670.51      49.9808      22.8710    
   1697.53      50.2645      22.4191    
   1724.99      50.5406      21.9761    
   1752.89      50.8036      21.5248    
   1781.24      51.0479      21.0769    
   1810.05      51.2715      20.6340    
   1839.32      51.4785      20.2003    
   1869.07      51.6713      19.7759    
   1899.30      51.8518      19.3605    
   1930.02      52.0210      18.9536    
   1961.24      52.1803      18.5552    
   1992.96      52.3270      18.1651    
   2025.20      52.4731      17.7917    
   2057.95      52.6139      17.4091    
   2091.24      52.7418      17.0331    
   2125.06      52.8594      16.6637    
   2159.43      52.9678      16.3004    
   2194.36      53.0677      15.9439    
   2229.85      53.1595      15.5937    
   2265.92      53.2435      15.2500    
   2302.57      53.3205      14.9130    
   2339.81      53.3899      14.5813    
   2377.66      53.4527      14.2569    
   2416.11      53.5094      13.9384    
   2455.19      53.5600      13.6259    
   2494.90      53.6042      13.3192    
   2535.26      53.6429      13.0191    
   2576.26      53.6764      12.7245    
   2617.93      53.7045      12.4357    
   2660.27      53.7275      12.1524    
   2703.30      53.7452      11.8746    
   2747.03      53.7583      11.6030    
   2791.46      53.7671      11.3365    
   2836.61      53.7709      11.0751    
   2882.49      53.7703      10.8196    
   2929.11      53.7658      10.5689    
   2976.48      53.7570      10.3233    
   3024.63      53.7440      10.0829    
   3073.55      53.7269      9.84732    
   3123.26      53.7060      9.61666    
   3173.78      53.6811      9.39077    
   3225.11      53.6523      9.16965    
   3277.27      53.6197      8.95317    
   3330.28      53.5833      8.74107    
   3384.15      53.5430      8.53343    
   3438.88      53.4987      8.33018    
   3494.50      53.4506      8.13124    
   3551.02      53.3985      7.93647    
   3608.46      53.3422      7.74576    
   3666.82      53.2818      7.55916    
   3726.13      53.2170      7.37646    
   3786.40      53.1476      7.19771    
   3847.64      53.0737      7.02272    
   3909.87      52.9947      6.85137    
   3973.11      52.9104      6.68377    
   4037.38      52.8207      6.51974    
   4102.68      52.7250      6.35914    
   4169.03      52.6227      6.20199    
   4236.46      52.5134      6.04830    
   4304.98      52.3966      5.89782    
   4374.62      52.2713      5.75045    
   4445.37      52.1364      5.60634    
   4517.27      51.9911      5.46530    
   4590.33      51.8338      5.32730    
   4664.58      51.6628      5.19224    
   4740.03      51.4761      5.06011    
   4816.69      51.2708      4.93075    
   4894.60      51.0434      4.80425    
   4973.77      50.7894      4.68043    
   5054.21      50.5022      4.55917    
   5135.96      50.1731      4.44062    
   5219.03      49.7890      4.32457    
   5303.44      49.3293      4.21090    
   5389.22      48.7590      4.09981    
   5476.39      48.0111      3.99101    
   5564.97      46.9260      3.88462    
   5654.98      44.9343      3.78047    
   5723.30      29.5430      3.70435    
   5723.50      29.5449      11.1538    
   5746.44      42.3851      11.0714    
   5839.39      46.1015      10.7472    
   5933.83      47.2177      10.4327    
   6029.81      47.5422      10.1274    
   6127.33      46.7219      9.83095    
   6164.10      40.0416      9.72267    
   6164.30      40.0430      13.3925    
   6226.44      47.8728      13.1669    
   6327.15      49.3360      12.8140    
   6429.48      50.0300      12.4702    
   6533.48      49.7640      12.1360    
   6548.70      47.3953      12.0882    
   6548.90      47.3980      13.6362    
   6639.15      51.2345      13.3773    
   6746.54      52.1353      13.0801    
   6855.65      52.8021      12.7868    
   6966.54      53.3514      12.4970    
   7079.22      53.8228      12.2113    
   7193.72      54.2364      11.9297    
   7310.07      54.6043      11.6524    
   7428.31      54.9346      11.3793    
   7548.45      55.2328      11.1106    
   7670.54      55.5036      10.8462    
   7794.61      55.7502      10.5863    
   7920.68      55.9755      10.3309    
   8048.79      56.1816      10.0801    
   8178.98      56.3706      9.83382    
   8311.26      56.5440      9.59208    
   8445.69      56.7032      9.35493    
   8582.29      56.8493      9.12244    
   8721.11      56.9836      8.89437    
   8862.16      57.1068      8.67092    
   9005.50      57.2199      8.45212    
   9151.16      57.3236      8.23760    
   9299.17      57.4185      8.02776    
   9449.58      57.5053      7.82223    
   9602.42      57.5847      7.62125    
   9757.73      57.6569      7.42436    
   9915.55      57.7225      7.23194    
   10075.9      57.7820      7.04378    
   10238.9      57.8357      6.85985    
   10404.5      57.8840      6.68007    
   10572.8      57.9273      6.50440    
   10743.8      57.9659      6.33278    
   10917.6      58.0001      6.16515    
   11094.2      58.0301      6.00146    
   11273.6      58.0562      5.84163    
   11455.9      58.0787      5.68562    
   11641.2      58.0977      5.53335    
   11829.5      58.1136      5.38476    
   12020.8      58.1265      5.23980    
   12215.3      58.1365      5.09838    
   12412.8      58.1439      4.96045    
   12613.6      58.1488      4.82594    
   12817.6      58.1514      4.69480    
   13025.0      58.1518      4.56694    
   13235.6      58.1501      4.44232    
   13449.7      58.1466      4.32086    
   13667.2      58.1413      4.20249    
   13888.3      58.1343      4.08717    
   14112.9      58.1258      3.97481    
   14341.2      58.1157      3.86536    
   14573.1      58.1044      3.75876    
   14808.9      58.0917      3.65494    
   15048.4      58.0779      3.55384    
   15291.8      58.0629      3.45541    
   15539.1      58.0469      3.35958    
   15790.4      58.0300      3.26629    
   16045.8      58.0121      3.17549    
   16305.4      57.9935      3.08711    
   16569.1      57.9740      3.00111    
   16837.1      57.9538      2.91742    
   17109.4      57.9329      2.83599    
   17386.1      57.9114      2.75676    
   17667.4      57.8893      2.67969    
   17953.1      57.8667      2.60472    
   18243.5      57.8435      2.53180    
   18538.6      57.8199      2.46088    
   18838.4      57.7958      2.39191    
   19143.1      57.7713      2.32484    
   19452.7      57.7464      2.25963    
   19767.4      57.7211      2.19622    
   20087.1      57.6955      2.13457    
   20412.0      57.6695      2.07464    
   20742.1      57.6432      2.01639    
   21077.6      57.6165      1.95976    
   21418.5      57.5896      1.90472    
   21765.0      57.5623      1.85122    
   22117.0      57.5347      1.79923    
   22474.7      57.5068      1.74871    
   22838.2      57.4785      1.69962    
   23207.6      57.4499      1.65191    
   23583.0      57.4210      1.60556    
   23964.4      57.3917      1.56053    
   24352.0      57.3621      1.51678    
   24745.9      57.3320      1.47428    
   25146.2      57.3014      1.43299    
   25552.9      57.2704      1.39289    
   25966.2      57.2388      1.35393    
   26386.1      57.2067      1.31609    
   26812.9      57.1739      1.27934    
   27246.6      57.1404      1.24365    
   27687.3      57.1061      1.20899    
   28135.1      57.0710      1.17533    
   28590.2      57.0349      1.14264    
   29052.6      56.9978      1.11090    
   29522.5      56.9624      1.08008    
   30000.0      56.9098      1.05015    
