 co, Z=27, (Energy (eV),f1,f2)
   10.0000     -9999.00      1.42071    
   10.1617     -9999.00      1.45925    
   10.3261     -9999.00      1.49884    
   10.4931     -9999.00      1.53949    
   10.6628     -9999.00      1.58125    
   10.8353     -9999.00      1.62415    
   11.0106     -9999.00      1.66820    
   11.1886     -9999.00      1.71345    
   11.3696     -9999.00      1.75993    
   11.5535     -9999.00      1.80767    
   11.7404     -9999.00      1.85671    
   11.9303     -9999.00      1.90707    
   12.1232     -9999.00      1.94682    
   12.3193     -9999.00      1.98600    
   12.5186     -9999.00      2.02596    
   12.7210     -9999.00      2.06674    
   12.9268     -9999.00      2.10833    
   13.1359     -9999.00      2.15076    
   13.3483     -9999.00      2.19404    
   13.5642     -9999.00      2.23819    
   13.7836     -9999.00      2.28323    
   14.0066     -9999.00      2.32918    
   14.2331     -9999.00      2.37605    
   14.4633     -9999.00      2.42371    
   14.6973     -9999.00      2.47199    
   14.9350     -9999.00      2.52123    
   15.1765     -9999.00      2.57146    
   15.4220     -9999.00      2.62268    
   15.6714     -9999.00      2.67492    
   15.9249     -9999.00      2.72821    
   16.1825     -9999.00      2.78255    
   16.4442     -9999.00      2.83798    
   16.7102     -9999.00      2.89452    
   16.9805     -9999.00      2.95217    
   17.2551     -9999.00      3.00203    
   17.5342     -9999.00      3.04455    
   17.8178     -9999.00      3.08768    
   18.1060     -9999.00      3.13142    
   18.3989     -9999.00      3.17578    
   18.6964     -9999.00      3.22076    
   18.9988     -9999.00      3.26639    
   19.3061     -9999.00      3.31266    
   19.6184     -9999.00      3.35958    
   19.9357     -9999.00      3.40700    
   20.2582     -9999.00      3.45166    
   20.5858     -9999.00      3.49690    
   20.9188     -9999.00      3.54274    
   21.2571     -9999.00      3.58917    
   21.6009     -9999.00      3.63622    
   21.9503     -9999.00      3.68388    
   22.3053     -9999.00      3.73217    
   22.6661     -9999.00      3.78109    
   23.0327     -9999.00      3.83065    
   23.4053     -9999.00      3.88086    
   23.7838     -9999.00      3.93173    
   24.1685     -9999.00      3.98327    
   24.5594     -9999.00      4.02721    
   24.9566     -9999.00      4.06435    
   25.3603     -9999.00      4.10183    
   25.7705     -9999.00      4.13966    
   26.1873     -9999.00      4.17784    
   26.6109     -9999.00      4.21637    
   27.0413     -9999.00      4.25526    
   27.4786     -9999.00      4.29450    
   27.9231     -9999.00      4.33411    
   28.3747     -9999.00      4.36366    
   28.8337     -9999.00      4.35857    
   29.3000      3.98251      4.35348    
   29.7739      4.05081      4.34840    
   30.2555      4.11438      4.34333    
   30.7449      4.17442      4.33826    
   31.2421      4.23178      4.33320    
   31.7475      4.28723      4.32814    
   32.2609      4.34162      4.32308    
   32.7827      4.39819      4.31804    
   33.3130      4.46159      4.30200    
   33.8518      4.51057      4.27710    
   34.3993      4.55107      4.25234    
   34.9557      4.58579      4.22773    
   35.5211      4.61516      4.20326    
   36.0956      4.63925      4.17893    
   36.6794      4.65765      4.15473    
   37.2727      4.66840      4.13069    
   37.8755      4.67446      4.11592    
   38.4882      4.68060      4.10181    
   39.1107      4.68468      4.08775    
   39.7432      4.68556      4.07374    
   40.3861      4.68276      4.05977    
   41.0393      4.67585      4.04586    
   41.7031      4.66434      4.03199    
   42.3776      4.64780      4.01853    
   43.0630      4.62611      4.00528    
   43.7595      4.59855      3.99206    
   44.4673      4.56440      3.97889    
   45.1865      4.52280      3.96576    
   45.9174      4.47271      3.95268    
   46.6600      4.41279      3.93968    
   47.4147      4.34177      3.92725    
   48.1816      4.25782      3.91487    
   48.9609      4.15820      3.90252    
   49.7528      4.03870      3.89021    
   50.5576      3.89204      3.87794    
   51.3753      3.71361      3.87930    
   52.2062      3.50455      3.88547    
   53.0506      3.23145      3.89869    
   53.9087      2.92456      3.99062    
   54.7806      2.57871      4.08473    
   55.6667      2.12007      4.21666    
   56.5670      1.50781      4.40344    
   57.4820     0.481044      5.04650    
   58.4117    -0.135500      6.26867    
   59.3564    -0.348010      7.78683    
   60.3165     0.174934      9.67273    
   61.2921      1.78564      10.6537    
   62.2834      3.05037      11.0491    
   63.2908      4.17887      10.9440    
   64.3145      4.94120      10.6950    
   65.3547      5.47262      10.4722    
   66.4118      5.92047      10.2757    
   67.4859      6.30138      10.0828    
   68.5775      6.62307      9.89349    
   69.6867      6.89114      9.70777    
   70.8138      7.09757      9.54202    
   71.9591      7.29107      9.40958    
   73.1230      7.46632      9.27899    
   74.3057      7.61756      9.15020    
   75.5076      7.73533      9.02321    
   76.7289      7.78707      8.89986    
   77.9699      7.84123      8.89839    
   79.2310      7.93430      8.89692    
   80.5125      8.04089      8.89545    
   81.8147      8.15364      8.89397    
   83.1380      8.26945      8.89251    
   84.4827      8.38656      8.89103    
   85.8491      8.50380      8.88957    
   87.2377      8.62013      8.88810    
   88.6487      8.73391      8.88663    
   90.0825      8.84008      8.88516    
   91.5395      8.94302      8.90185    
   93.0201      9.05732      8.92456    
   94.5246      9.17802      8.94731    
   96.0535      9.30336      8.97014    
   97.6071      9.43302      8.99301    
   99.1858      9.56727      9.01595    
   100.790      9.70715      9.03894    
   102.420      9.85558      9.06199    
   104.077      10.0244      9.07617    
   105.760      10.1821      9.05984    
   107.471      10.3289      9.04353    
   109.209      10.4696      9.02726    
   110.975      10.6070      9.01102    
   112.770      10.7419      8.99479    
   114.594      10.8751      8.97860    
   116.448      11.0068      8.96245    
   118.331      11.1375      8.94633    
   120.245      11.2674      8.93022    
   122.190      11.3967      8.91415    
   124.166      11.5256      8.89811    
   126.175      11.6533      8.88210    
   128.215      11.7689      8.87660    
   130.289      11.9243      8.88791    
   132.397      12.0791      8.85118    
   134.538      12.2209      8.81453    
   136.714      12.3553      8.77804    
   138.925      12.4862      8.74172    
   141.172      12.6147      8.70559    
   143.456      12.7416      8.66963    
   145.776      12.8674      8.63379    
   148.134      12.9926      8.59804    
   150.530      13.1175      8.56240    
   152.964      13.2430      8.52710    
   155.439      13.3705      8.49188    
   157.953      13.5036      8.45677    
   160.507      13.6377      8.40911    
   163.103      13.7723      8.35600    
   165.742      13.8973      8.29584    
   168.422      14.0167      8.23602    
   171.146      14.1323      8.17663    
   173.915      14.2453      8.11767    
   176.727      14.3562      8.05921    
   179.586      14.4657      8.00118    
   182.491      14.5745      7.94357    
   185.442      14.6835      7.88632    
   188.442      14.7947      7.82754    
   191.489      14.9086      7.76516    
   194.587      15.0162      7.69306    
   197.734      15.1183      7.62172    
   200.932      15.2170      7.55110    
   204.182      15.3136      7.48100    
   207.485      15.4098      7.41066    
   210.840      15.5060      7.33987    
   214.251      15.5988      7.26183    
   217.716      15.6864      7.18423    
   221.237      15.7700      7.10747    
   224.816      15.8510      7.03172    
   228.452      15.9300      6.95670    
   232.147      16.0073      6.88236    
   235.902      16.0840      6.80889    
   239.717      16.1614      6.73346    
   243.595      16.2354      6.65550    
   247.535      16.3059      6.57587    
   251.538      16.3725      6.49690    
   255.607      16.4364      6.41891    
   259.741      16.4982      6.34175    
   263.942      16.5584      6.26551    
   268.211      16.6191      6.19016    
   272.549      16.6779      6.11070    
   276.957      16.7327      6.03070    
   281.437      16.7839      5.95119    
   285.989      16.8323      5.87252    
   290.615      16.8782      5.79487    
   295.315      16.9227      5.71831    
   300.092      16.9655      5.64128    
   304.945      17.0068      5.56394    
   309.878      17.0446      5.48605    
   314.890      17.0793      5.40904    
   319.983      17.1115      5.33316    
   325.158      17.1425      5.25852    
   330.418      17.1715      5.18298    
   335.762      17.1982      5.10762    
   341.192      17.2218      5.03229    
   346.711      17.2424      4.95793    
   352.319      17.2606      4.88464    
   358.017      17.2774      4.81243    
   363.808      17.2919      4.73913    
   369.692      17.3031      4.66642    
   375.672      17.3113      4.59458    
   381.748      17.3170      4.52385    
   387.922      17.3207      4.45374    
   394.197      17.3215      4.38367    
   400.573      17.3194      4.31398    
   407.052      17.3140      4.24510    
   413.635      17.3059      4.17733    
   420.326      17.2949      4.10964    
   427.124      17.2809      4.04263    
   434.032      17.2631      3.97590    
   441.052      17.2417      3.91023    
   448.186      17.2172      3.84546    
   455.435      17.1889      3.78090    
   462.802      17.1565      3.71717    
   470.287      17.1200      3.65438    
   477.894      17.0800      3.59262    
   485.623      17.0355      3.53009    
   493.478      16.9852      3.46797    
   501.459      16.9291      3.40695    
   509.570      16.8673      3.34701    
   517.812      16.7990      3.28828    
   526.187      16.7243      3.23115    
   534.698      16.6431      3.17612    
   543.346      16.5558      3.12257    
   552.134      16.4622      3.06998    
   561.065      16.3607      3.01558    
   570.139      16.2478      2.96112    
   579.361      16.1236      2.90927    
   588.732      15.9881      2.85882    
   598.254      15.8401      2.80954    
   607.930      15.6779      2.76106    
   617.763      15.4994      2.71346    
   627.755      15.3028      2.66656    
   637.908      15.0847      2.61848    
   648.226      14.8396      2.56838    
   658.711      14.5596      2.51737    
   669.365      14.2376      2.46741    
   680.191      13.8651      2.42381    
   691.193      13.4352      2.38506    
   702.372      12.9326      2.34779    
   713.733      12.3259      2.30698    
   725.277      11.5647      2.26406    
   737.008      10.5677      2.22189    
   748.928      9.16323      2.18051    
   761.042      6.88403      2.13989    
   773.351      1.20092      2.10004    
   778.000     -16.6697      2.08534    
   778.200     -16.6574      16.7554    
   785.859      3.90051      16.5665    
   798.570      8.67726      16.2618    
   811.486      11.1424      15.9628    
   824.611      12.8290      15.6692    
   837.949      14.1115      15.3809    
   851.502      15.1447      15.0988    
   865.274      16.0019      14.7991    
   879.269      16.6975      14.4850    
   893.491      17.1236      14.1650    
   907.943      17.3570      14.1281    
   922.628      17.8034      14.3979    
   937.551      18.5118      14.6728    
   952.715      19.4683      14.6303    
   968.124      20.2571      14.2814    
   983.783      20.8180      13.9412    
   999.695      21.3022      13.6122    
   1015.86      21.7151      13.2943    
   1032.29      22.0920      13.0136    
   1048.99      22.4506      12.7340    
   1065.96      22.7802      12.4548    
   1083.20      23.0822      12.1819    
   1100.72      23.3617      11.9149    
   1118.52      23.6214      11.6539    
   1136.61      23.8631      11.3984    
   1155.00      24.0885      11.1486    
   1173.68      24.2994      10.9043    
   1192.66      24.4972      10.6653    
   1211.95      24.6830      10.4315    
   1231.55      24.8598      10.2029    
   1251.47      25.0270      9.97641    
   1271.72      25.1851      9.75168    
   1292.29      25.3313      9.52808    
   1313.19      25.4657      9.30975    
   1334.43      25.5910      9.09640    
   1356.01      25.7080      8.88787    
   1377.94      25.8174      8.68415    
   1400.23      25.9200      8.48511    
   1422.88      26.0164      8.29065    
   1445.89      26.1075      8.10059    
   1469.28      26.1938      7.91422    
   1493.04      26.2768      7.73112    
   1517.19      26.3539      7.54775    
   1541.73      26.4236      7.36808    
   1566.67      26.4877      7.19261    
   1592.01      26.5469      7.02142    
   1617.76      26.6019      6.85430    
   1643.92      26.6530      6.69118    
   1670.51      26.7009      6.53201    
   1697.53      26.7462      6.37659    
   1724.99      26.7908      6.22480    
   1752.89      26.8324      6.07119    
   1781.24      26.8694      5.91959    
   1810.05      26.9010      5.77049    
   1839.32      26.9286      5.62517    
   1869.07      26.9528      5.48347    
   1899.30      26.9741      5.34528    
   1930.02      26.9926      5.21058    
   1961.24      27.0089      5.07932    
   1992.96      27.0223      4.95148    
   2025.20      27.0361      4.82906    
   2057.95      27.0488      4.70487    
   2091.24      27.0585      4.58352    
   2125.06      27.0657      4.46456    
   2159.43      27.0705      4.34837    
   2194.36      27.0737      4.23509    
   2229.85      27.0751      4.12425    
   2265.92      27.0748      4.01592    
   2302.57      27.0729      3.91018    
   2339.81      27.0695      3.80684    
   2377.66      27.0647      3.70609    
   2416.11      27.0586      3.60755    
   2455.19      27.0513      3.51169    
   2494.90      27.0429      3.41789    
   2535.26      27.0333      3.32645    
   2576.26      27.0227      3.23728    
   2617.93      27.0112      3.15031    
   2660.27      26.9987      3.06547    
   2703.30      26.9854      2.98278    
   2747.03      26.9713      2.90213    
   2791.46      26.9564      2.82354    
   2836.61      26.9409      2.74695    
   2882.49      26.9247      2.67229    
   2929.11      26.9078      2.59956    
   2976.48      26.8904      2.52868    
   3024.63      26.8724      2.45962    
   3073.55      26.8539      2.39238    
   3123.26      26.8349      2.32686    
   3173.78      26.8155      2.26306    
   3225.11      26.7956      2.20096    
   3277.27      26.7753      2.14049    
   3330.28      26.7546      2.08160    
   3384.15      26.7336      2.02426    
   3438.88      26.7122      1.96845    
   3494.50      26.6904      1.91417    
   3551.02      26.6684      1.86131    
   3608.46      26.6460      1.80987    
   3666.82      26.6233      1.75983    
   3726.13      26.6004      1.71112    
   3786.40      26.5771      1.66373    
   3847.64      26.5535      1.61763    
   3909.87      26.5297      1.57278    
   3973.11      26.5055      1.52914    
   4037.38      26.4810      1.48672    
   4102.68      26.4563      1.44546    
   4169.03      26.4312      1.40533    
   4236.46      26.4058      1.36631    
   4304.98      26.3800      1.32838    
   4374.62      26.3539      1.29145    
   4445.37      26.3273      1.25560    
   4517.27      26.3004      1.22069    
   4590.33      26.2730      1.18682    
   4664.58      26.2451      1.15383    
   4740.03      26.2166      1.12178    
   4816.69      26.1876      1.09064    
   4894.60      26.1580      1.06035    
   4973.77      26.1276      1.03091    
   5054.21      26.0965      1.00235    
   5135.96      26.0646     0.974532    
   5219.03      26.0317     0.947518    
   5303.44      25.9978     0.921275    
   5389.22      25.9627     0.895781    
   5476.39      25.9263     0.871002    
   5564.97      25.8884     0.846905    
   5654.98      25.8489     0.823513    
   5746.44      25.8075     0.800730    
   5839.39      25.7639     0.778663    
   5933.83      25.7179     0.757205    
   6029.81      25.6691     0.736352    
   6127.33      25.6170     0.716096    
   6226.44      25.5610     0.696420    
   6327.15      25.5005     0.677309    
   6429.48      25.4345     0.658738    
   6533.48      25.3619     0.640705    
   6639.15      25.2813     0.623185    
   6746.54      25.1905     0.606170    
   6855.65      25.0868     0.589643    
   6966.54      24.9658     0.573591    
   7079.22      24.8212     0.557998    
   7193.72      24.6425     0.542853    
   7310.07      24.4103     0.528143    
   7428.31      24.0838     0.513866    
   7548.45      23.5486     0.499994    
   7670.54      22.1136     0.486510    
   7708.80      15.8795     0.482403    
   7709.00      15.8799      3.79398    
   7794.61      23.0649      3.73339    
   7920.68      24.0784      3.64708    
   8048.79      24.6213      3.56198    
   8178.98      24.9974      3.47810    
   8311.26      25.2857      3.39547    
   8445.69      25.5190      3.31428    
   8582.29      25.7143      3.23428    
   8721.11      25.8816      3.15569    
   8862.16      26.0272      3.07841    
   9005.50      26.1555      3.00255    
   9151.16      26.2696      2.92811    
   9299.17      26.3717      2.85496    
   9449.58      26.4637      2.78322    
   9602.42      26.5469      2.71287    
   9757.73      26.6223      2.64382    
   9915.55      26.6909      2.57631    
   10075.9      26.7536      2.51007    
   10238.9      26.8109      2.44521    
   10404.5      26.8633      2.38169    
   10572.8      26.9113      2.31952    
   10743.8      26.9553      2.25869    
   10917.6      26.9956      2.19918    
   11094.2      27.0326      2.14098    
   11273.6      27.0665      2.08407    
   11455.9      27.0976      2.02844    
   11641.2      27.1260      1.97408    
   11829.5      27.1520      1.92096    
   12020.8      27.1758      1.86907    
   12215.3      27.1975      1.81839    
   12412.8      27.2173      1.76891    
   12613.6      27.2353      1.72060    
   12817.6      27.2516      1.67345    
   13025.0      27.2664      1.62744    
   13235.6      27.2797      1.58255    
   13449.7      27.2916      1.53876    
   13667.2      27.3023      1.49604    
   13888.3      27.3118      1.45439    
   14112.9      27.3203      1.41378    
   14341.2      27.3276      1.37419    
   14573.1      27.3341      1.33560    
   14808.9      27.3396      1.29799    
   15048.4      27.3443      1.26134    
   15291.8      27.3482      1.22564    
   15539.1      27.3513      1.19085    
   15790.4      27.3538      1.15697    
   16045.8      27.3557      1.12398    
   16305.4      27.3569      1.09185    
   16569.1      27.3576      1.06056    
   16837.1      27.3578      1.03011    
   17109.4      27.3575      1.00046    
   17386.1      27.3568     0.971604    
   17667.4      27.3556     0.943521    
   17953.1      27.3541     0.916193    
   18243.5      27.3522     0.889602    
   18538.6      27.3500     0.863733    
   18838.4      27.3474     0.838566    
   19143.1      27.3446     0.814087    
   19452.7      27.3416     0.790277    
   19767.4      27.3382     0.767122    
   20087.1      27.3347     0.744605    
   20412.0      27.3310     0.722710    
   20742.1      27.3271     0.701422    
   21077.6      27.3230     0.680726    
   21418.5      27.3188     0.660608    
   21765.0      27.3144     0.641052    
   22117.0      27.3099     0.622045    
   22474.7      27.3053     0.603573    
   22838.2      27.3006     0.585621    
   23207.6      27.2958     0.568177    
   23583.0      27.2909     0.551227    
   23964.4      27.2860     0.534759    
   24352.0      27.2810     0.518759    
   24745.9      27.2760     0.503217    
   25146.2      27.2709     0.488119    
   25552.9      27.2658     0.473454    
   25966.2      27.2607     0.459210    
   26386.1      27.2555     0.445376    
   26812.9      27.2504     0.431942    
   27246.6      27.2452     0.418896    
   27687.3      27.2401     0.406228    
   28135.1      27.2349     0.393927    
   28590.2      27.2298     0.381985    
   29052.6      27.2248     0.370390    
   29522.5      27.2208     0.359134    
   30000.0      27.2113     0.348207    
