 cs, Z=55, (Energy (eV),f1,f2)
   10.0000     -9999.00     0.429437E-01
   10.1617     -9999.00     0.419900E-01
   10.3261     -9999.00     0.410574E-01
   10.4931     -9999.00     0.401456E-01
   10.6628     -9999.00     0.392540E-01
   10.8353     -9999.00     0.383822E-01
   11.0106     -9999.00     0.418579E-01
   11.1886     -9999.00     0.498688E-01
   11.3696     -9999.00     0.629069E-01
   11.5535     -9999.00     0.682259E-01
   11.7404     -9999.00     0.698775E-01
   11.9303     -9999.00     0.810036E-01
   12.1232     -9999.00     0.106648    
   12.3193     -9999.00     0.151212    
   12.5186     -9999.00     0.230476    
   12.7210     -9999.00     0.366991    
   12.9268     -9999.00     0.528355    
   13.1359     -9999.00     0.818153    
   13.3483     -9999.00      1.02400    
   13.5642     -9999.00      1.26872    
   13.7836     -9999.00      1.55155    
   14.0066     -9999.00      1.87715    
   14.2331     -9999.00      2.37324    
   14.4633     -9999.00      2.92150    
   14.6973     -9999.00      3.66589    
   14.9350     -9999.00      4.75148    
   15.1765     -9999.00      6.96885    
   15.4220     -9999.00      8.91684    
   15.6714     -9999.00      10.5004    
   15.9249     -9999.00      11.2155    
   16.1825     -9999.00      11.9793    
   16.4442     -9999.00      12.6671    
   16.7102     -9999.00      13.3472    
   16.9805     -9999.00      13.9057    
   17.2551     -9999.00      14.0264    
   17.5342     -9999.00      14.1482    
   17.8178     -9999.00      14.2710    
   18.1060     -9999.00      14.3949    
   18.3989     -9999.00      14.5199    
   18.6964     -9999.00      14.3427    
   18.9988     -9999.00      14.1328    
   19.3061     -9999.00      13.9259    
   19.6184     -9999.00      13.7221    
   19.9357     -9999.00      13.4458    
   20.2582     -9999.00      13.1638    
   20.5858     -9999.00      12.8878    
   20.9188     -9999.00      12.6141    
   21.2571     -9999.00      12.2232    
   21.6009     -9999.00      11.8445    
   21.9503     -9999.00      11.4775    
   22.3053     -9999.00      11.0553    
   22.6661     -9999.00      10.6269    
   23.0327     -9999.00      10.2151    
   23.4053     -9999.00      9.81922    
   23.7838     -9999.00      9.44774    
   24.1685     -9999.00      9.11072    
   24.5594     -9999.00      8.78571    
   24.9566     -9999.00      8.47230    
   25.3603     -9999.00      8.06786    
   25.7705     -9999.00      7.56290    
   26.1873     -9999.00      7.08954    
   26.6109     -9999.00      6.74479    
   27.0413     -9999.00      6.45590    
   27.4786     -9999.00      6.17940    
   27.9231     -9999.00      5.91473    
   28.3747     -9999.00      5.65465    
   28.8337     -9999.00      5.39884    
   29.3000      12.6617      5.15460    
   29.7739      12.6085      4.92141    
   30.2555      12.5481      4.70819    
   30.7449      12.4926      4.50744    
   31.2421      12.4400      4.31525    
   31.7475      12.3960      4.13125    
   32.2609      12.3757      3.95510    
   32.7827      12.3515      3.69912    
   33.3130      12.2583      3.44456    
   33.8518      12.1353      3.23730    
   34.3993      12.0145      3.04858    
   34.9557      11.8895      2.87087    
   35.5211      11.7594      2.70351    
   36.0956      11.6244      2.54592    
   36.6794      11.4846      2.39750    
   37.2727      11.3401      2.25774    
   37.8755      11.1910      2.12613    
   38.4882      11.0361      2.00219    
   39.1107      10.8723      1.88836    
   39.7432      10.7096      1.79032    
   40.3861      10.5479      1.69738    
   41.0393      10.3834      1.60926    
   41.7031      10.2132      1.52572    
   42.3776      10.0391      1.45651    
   43.0630      9.86795      1.39266    
   43.7595      9.69529      1.33162    
   44.4673      9.51862      1.27324    
   45.1865      9.33379      1.21743    
   45.9174      9.14415      1.17795    
   46.6600      8.95660      1.14149    
   47.4147      8.76513      1.10795    
   48.1816      8.57129      1.07846    
   48.9609      8.37109      1.04975    
   49.7528      8.16028      1.03140    
   50.5576      7.95248      1.02037    
   51.3753      7.74148      1.00945    
   52.2062      7.52514      1.00071    
   53.0506      7.30218     0.992083    
   53.9087      7.06993     0.983527    
   54.7806      6.82665     0.977322    
   55.6667      6.57189     0.971924    
   56.5670      6.29978     0.966556    
   57.4820      6.00707     0.975651    
   58.4117      5.70957     0.992222    
   59.3564      5.40057      1.00899    
   60.3165      5.07420      1.02599    
   61.2921      4.72660      1.04328    
   62.2834      4.35218      1.06087    
   63.2908      3.94035      1.08365    
   64.3145      3.50225      1.12115    
   65.3547      3.03170      1.15994    
   66.4118      2.51696      1.20007    
   67.4859      1.94558      1.24160    
   68.5775      1.29762      1.28456    
   69.6867     0.533614      1.34315    
   70.8138    -0.357045      1.42961    
   71.9591     -1.49468      1.53626    
   73.1230     -3.24563      1.89574    
   74.3057     -4.95726      4.03416    
   75.5076     -3.71900      5.53633    
   76.7289     -4.13781      5.32920    
   77.9699     -5.36837      5.60660    
   79.2310     -6.80368      6.49975    
   80.5125     -8.07423      7.81229    
   81.8147     -9.23883      9.38984    
   83.1380     -10.2860      11.2583    
   84.4827     -11.2161      13.4515    
   85.8491     -11.8243      16.0721    
   87.2377     -11.7699      18.7350    
   88.6487     -11.6737      21.3926    
   90.0825     -11.2789      24.4273    
   91.5395     -9.91843      27.8924    
   93.0201     -7.98196      29.9593    
   94.5246     -6.31012      31.9914    
   96.0535     -4.61550      34.1614    
   97.6071     -2.47873      36.4785    
   99.1858     0.546025      38.1738    
   100.790      3.14912      39.2258    
   102.420      5.57355      40.3068    
   104.077      8.15483      41.4176    
   105.760      11.2353      42.5591    
   107.471      14.5234      42.7886    
   109.209      17.5569      42.8428    
   110.975      20.7369      42.8970    
   112.770      24.2991      42.4777    
   114.594      28.2226      41.8125    
   116.448      31.7939      39.1374    
   118.331      34.2941      36.4271    
   120.245      36.1991      33.8804    
   122.190      37.7155      31.3247    
   124.166      39.0530      28.9619    
   126.175      40.3599      26.2516    
   128.215      40.9448      23.4092    
   130.289      41.1769      20.7702    
   132.397      41.0458      18.3249    
   134.538      40.7658      16.1611    
   136.714      40.2659      14.0101    
   138.925      39.5810      12.1454    
   141.172      38.7677      10.4602    
   143.456      37.8558      8.99985    
   145.776      36.8901      7.74341    
   148.134      35.9047      6.67657    
   150.530      34.8971      5.75697    
   152.964      33.8709      5.06500    
   155.439      32.9803      4.53271    
   157.953      32.1580      4.05932    
   160.507      31.3883      3.64909    
   163.103      30.6523      3.28031    
   165.742      29.9134      2.94880    
   168.422      29.2027      2.72906    
   171.146      28.5437      2.54023    
   173.915      27.8820      2.41181    
   176.727      27.3045      2.35284    
   179.586      26.7726      2.29531    
   182.491      26.2275      2.24818    
   185.442      25.7256      2.28677    
   188.442      25.2774      2.34777    
   191.489      24.8794      2.42120    
   194.587      24.5306      2.49692    
   197.734      24.1959      2.53716    
   200.932      23.8552      2.61356    
   204.182      23.5401      2.69082    
   207.485      23.2313      2.77954    
   210.840      22.9354      2.88360    
   214.251      22.6597      3.01518    
   217.716      22.4061      3.15657    
   221.237      22.1754      3.30736    
   224.816      21.9646      3.46563    
   228.452      21.7737      3.63057    
   232.147      21.6024      3.80168    
   235.902      21.4490      3.97494    
   239.717      21.3154      4.15147    
   243.595      21.1979      4.32988    
   247.535      21.0960      4.50746    
   251.538      21.0146      4.68555    
   255.607      20.9457      4.86103    
   259.741      20.8884      5.03213    
   263.942      20.8454      5.20297    
   268.211      20.8168      5.37346    
   272.549      20.7998      5.53261    
   276.957      20.7908      5.68956    
   281.437      20.7940      5.84707    
   285.989      20.8066      5.99112    
   290.615      20.8281      6.13181    
   295.315      20.8548      6.26754    
   300.092      20.8875      6.39575    
   304.945      20.9301      6.51839    
   309.878      20.9742      6.63359    
   314.890      21.0221      6.74434    
   319.983      21.0784      6.84843    
   325.158      21.1334      6.94355    
   330.418      21.1893      7.03462    
   335.762      21.2543      7.12044    
   341.192      21.3166      7.19610    
   346.711      21.3765      7.26781    
   352.319      21.4426      7.33591    
   358.017      21.5057      7.39315    
   363.808      21.5653      7.44458    
   369.692      21.6252      7.49296    
   375.672      21.6830      7.53641    
   381.748      21.7376      7.57213    
   387.922      21.7882      7.60520    
   394.197      21.8396      7.63714    
   400.573      21.8890      7.65692    
   407.052      21.9288      7.67186    
   413.635      21.9642      7.68692    
   420.326      21.9958      7.69656    
   427.124      22.0239      7.70399    
   434.032      22.0461      7.70723    
   441.052      22.0645      7.71053    
   448.186      22.1160      7.70170    
   455.435      22.1252      7.63186    
   462.802      22.0850      7.58868    
   470.287      22.0383      7.55972    
   477.894      21.9869      7.53078    
   485.623      21.9243      7.50204    
   493.478      21.8500      7.47342    
   501.459      21.7633      7.44489    
   509.570      21.6639      7.41643    
   517.812      21.5531      7.38681    
   526.187      21.4280      7.35286    
   534.698      21.2839      7.31054    
   543.346      21.1132      7.26427    
   552.134      20.9172      7.21831    
   561.065      20.6937      7.16823    
   570.139      20.4376      7.11603    
   579.361      20.1426      7.06148    
   588.732      19.8048      7.00682    
   598.254      19.4177      6.95222    
   607.930      18.9737      6.89799    
   617.763      18.4626      6.84424    
   627.755      17.8722      6.79051    
   637.908      17.1818      6.73162    
   648.226      16.3598      6.66508    
   658.711      15.3572      6.59388    
   669.365      14.1097      6.52347    
   680.191      12.5113      6.46370    
   691.193      10.3716      6.41210    
   702.372      7.25142      6.36288    
   713.733      1.78667      6.30731    
   725.277     -19.3132      6.24759    
   726.500     -44.1428      6.24135    
   726.700     -44.1051      36.6267    
   737.008      1.69243      35.8734    
   748.928      9.66949      35.0340    
   761.042      14.2840      34.2143    
   773.351      17.5447      33.4138    
   785.859      20.0496      32.6319    
   798.570      22.0606      31.8685    
   811.486      23.6900      31.1228    
   824.611      25.0563      30.4500    
   837.949      26.2365      29.8010    
   851.502      27.2476      29.1659    
   865.274      28.1037      28.5443    
   879.269      28.8116      27.9360    
   893.491      29.3411      27.3406    
   907.943      29.6849      26.8236    
   922.628      29.8885      26.3937    
   937.551      29.6445      25.9706    
   952.715      29.5170      26.5817    
   968.124      29.7900      27.2755    
   983.783      30.3994      27.9873    
   999.695      31.2384      28.7178    
   1015.86      32.9409      29.4672    
   1032.29      34.5490      28.9334    
   1048.99      35.5854      28.3585    
   1065.96      36.3974      27.7951    
   1083.20      36.9666      27.3143    
   1100.72      37.5261      27.0159    
   1118.52      38.1425      26.7207    
   1136.61      38.7507      26.4288    
   1155.00      39.4146      26.1401    
   1173.68      40.0574      25.7310    
   1192.66      40.6102      25.2960    
   1211.95      41.1080      24.8684    
   1231.55      41.5644      24.4481    
   1251.47      41.9852      24.0348    
   1271.72      42.3545      23.6285    
   1292.29      42.6929      23.2687    
   1313.19      43.0382      22.9399    
   1334.43      43.3837      22.6158    
   1356.01      43.7236      22.2962    
   1377.94      44.0570      21.9812    
   1400.23      44.3847      21.6706    
   1422.88      44.7091      21.3644    
   1445.89      45.0289      21.0550    
   1469.28      45.3407      20.7468    
   1493.04      45.6459      20.4431    
   1517.19      45.9493      20.1439    
   1541.73      46.2556      19.8490    
   1566.67      46.5774      19.5585    
   1592.01      46.9337      19.2238    
   1617.76      47.2497      18.8266    
   1643.92      47.5078      18.4385    
   1670.51      47.7435      18.0585    
   1697.53      47.9613      17.6864    
   1724.99      48.1674      17.3218    
   1752.89      48.3598      16.9544    
   1781.24      48.5359      16.5912    
   1810.05      48.6952      16.2329    
   1839.32      48.8406      15.8826    
   1869.07      48.9744      15.5398    
   1899.30      49.0977      15.2042    
   1930.02      49.2112      14.8759    
   1961.24      49.3162      14.5548    
   1992.96      49.4112      14.2410    
   2025.20      49.5045      13.9396    
   2057.95      49.5930      13.6336    
   2091.24      49.6719      13.3331    
   2125.06      49.7422      13.0379    
   2159.43      49.8052      12.7488    
   2194.36      49.8617      12.4651    
   2229.85      49.9117      12.1869    
   2265.92      49.9558      11.9145    
   2302.57      49.9941      11.6470    
   2339.81      50.0264      11.3850    
   2377.66      50.0538      11.1288    
   2416.11      50.0761      10.8770    
   2455.19      50.0934      10.6306    
   2494.90      50.1056      10.3889    
   2535.26      50.1132      10.1526    
   2576.26      50.1164      9.92095    
   2617.93      50.1154      9.69413    
   2660.27      50.1097      9.47150    
   2703.30      50.0996      9.25397    
   2747.03      50.0856      9.04112    
   2791.46      50.0676      8.83255    
   2836.61      50.0454      8.62823    
   2882.49      50.0192      8.42832    
   2929.11      49.9889      8.23261    
   2976.48      49.9546      8.04107    
   3024.63      49.9162      7.85355    
   3073.55      49.8737      7.67011    
   3123.26      49.8270      7.49050    
   3173.78      49.7761      7.31476    
   3225.11      49.7208      7.14282    
   3277.27      49.6610      6.97451    
   3330.28      49.5964      6.80979    
   3384.15      49.5269      6.64868    
   3438.88      49.4522      6.49101    
   3494.50      49.3720      6.33676    
   3551.02      49.2860      6.18586    
   3608.46      49.1937      6.03824    
   3666.82      49.0946      5.89376    
   3726.13      48.9882      5.75255    
   3786.40      48.8738      5.61427    
   3847.64      48.7504      5.47904    
   3909.87      48.6171      5.34672    
   3973.11      48.4726      5.21726    
   4037.38      48.3154      5.09063    
   4102.68      48.1436      4.96680    
   4169.03      47.9550      4.84569    
   4236.46      47.7465      4.72718    
   4304.98      47.5142      4.61127    
   4374.62      47.2531      4.49790    
   4445.37      46.9559      4.38689    
   4517.27      46.6127      4.27843    
   4590.33      46.2084      4.17237    
   4664.58      45.7191      4.06846    
   4740.03      45.1028      3.96690    
   4816.69      44.2754      3.86754    
   4894.60      43.0196      3.77031    
   4973.77      40.3216      3.67525    
   5011.80      26.1858      3.63096    
   5012.00      26.1877      11.1294    
   5054.21      40.5758      10.9592    
   5135.96      42.9330      10.6406    
   5219.03      43.7015      10.3315    
   5303.44      43.5450      10.0313    
   5359.30      36.6044      9.84000    
   5359.50      36.6083      13.5720    
   5389.22      43.3943      13.4535    
   5476.39      45.4612      13.1154    
   5564.97      46.3919      12.7860    
   5654.98      46.8301      12.4647    
   5714.20      44.0976      12.2605    
   5714.40      44.1015      13.9099    
   5746.44      47.1490      13.7992    
   5839.39      48.4385      13.4862    
   5933.83      49.2361      13.1777    
   6029.81      49.8667      12.8739    
   6127.33      50.3980      12.5747    
   6226.44      50.8590      12.2802    
   6327.15      51.2660      11.9907    
   6429.48      51.6294      11.7061    
   6533.48      51.9564      11.4262    
   6639.15      52.2522      11.1512    
   6746.54      52.5209      10.8813    
   6855.65      52.7660      10.6164    
   6966.54      52.9899      10.3565    
   7079.22      53.1950      10.1016    
   7193.72      53.3829      9.85157    
   7310.07      53.5554      9.60657    
   7428.31      53.7138      9.36658    
   7548.45      53.8593      9.13130    
   7670.54      53.9928      8.90105    
   7794.61      54.1155      8.67569    
   7920.68      54.2281      8.45495    
   8048.79      54.3313      8.23890    
   8178.98      54.4257      8.02767    
   8311.26      54.5122      7.82114    
   8445.69      54.5912      7.61911    
   8582.29      54.6632      7.42144    
   8721.11      54.7285      7.22849    
   8862.16      54.7878      7.03987    
   9005.50      54.8415      6.85567    
   9151.16      54.8899      6.67543    
   9299.17      54.9330      6.49972    
   9449.58      54.9717      6.32808    
   9602.42      55.0059      6.16049    
   9757.73      55.0361      5.99698    
   9915.55      55.0625      5.83732    
   10075.9      55.0853      5.68151    
   10238.9      55.1046      5.52950    
   10404.5      55.1208      5.38122    
   10572.8      55.1340      5.23658    
   10743.8      55.1445      5.09553    
   10917.6      55.1524      4.95799    
   11094.2      55.1578      4.82390    
   11273.6      55.1609      4.69317    
   11455.9      55.1619      4.56575    
   11641.2      55.1608      4.44157    
   11829.5      55.1579      4.32055    
   12020.8      55.1533      4.20263    
   12215.3      55.1469      4.08774    
   12412.8      55.1391      3.97582    
   12613.6      55.1298      3.86680    
   12817.6      55.1192      3.76061    
   13025.0      55.1073      3.65720    
   13235.6      55.0942      3.55649    
   13449.7      55.0801      3.45843    
   13667.2      55.0649      3.36296    
   13888.3      55.0487      3.27001    
   14112.9      55.0317      3.17953    
   14341.2      55.0139      3.09145    
   14573.1      54.9952      3.00572    
   14808.9      54.9759      2.92229    
   15048.4      54.9559      2.84110    
   15291.8      54.9352      2.76209    
   15539.1      54.9140      2.68521    
   15790.4      54.8922      2.61040    
   16045.8      54.8699      2.53763    
   16305.4      54.8472      2.46683    
   16569.1      54.8239      2.39795    
   16837.1      54.8003      2.33095    
   17109.4      54.7762      2.26579    
   17386.1      54.7518      2.20241    
   17667.4      54.7270      2.14076    
   17953.1      54.7018      2.08081    
   18243.5      54.6763      2.02251    
   18538.6      54.6505      1.96581    
   18838.4      54.6244      1.91068    
   19143.1      54.5979      1.85708    
   19452.7      54.5711      1.80496    
   19767.4      54.5440      1.75429    
   20087.1      54.5166      1.70502    
   20412.0      54.4888      1.65713    
   20742.1      54.4607      1.61057    
   21077.6      54.4322      1.56530    
   21418.5      54.4033      1.52131    
   21765.0      54.3740      1.47854    
   22117.0      54.3443      1.43697    
   22474.7      54.3141      1.39656    
   22838.2      54.2834      1.35729    
   23207.6      54.2520      1.31912    
   23583.0      54.2201      1.28202    
   23964.4      54.1875      1.24596    
   24352.0      54.1541      1.21092    
   24745.9      54.1198      1.17687    
   25146.2      54.0846      1.14378    
   25552.9      54.0483      1.11162    
   25966.2      54.0108      1.08038    
   26386.1      53.9719      1.05001    
   26812.9      53.9314      1.02050    
   27246.6      53.8892     0.991829    
   27687.3      53.8449     0.963968    
   28135.1      53.7983     0.936897    
   28590.2      53.7489     0.910593    
   29052.6      53.6962     0.885035    
   29522.5      53.6397     0.860201    
   30000.0      53.5787     0.836073    
