 cu, Z=29, (Energy (eV),f1,f2)
   10.0000     -9999.00      1.30088    
   10.1617     -9999.00      1.33374    
   10.3261     -9999.00      1.36743    
   10.4931     -9999.00      1.40197    
   10.6628     -9999.00      1.43738    
   10.8353     -9999.00      1.47369    
   11.0106     -9999.00      1.51091    
   11.1886     -9999.00      1.54908    
   11.3696     -9999.00      1.58821    
   11.5535     -9999.00      1.62833    
   11.7404     -9999.00      1.66946    
   11.9303     -9999.00      1.71163    
   12.1232     -9999.00      1.75487    
   12.3193     -9999.00      1.79920    
   12.5186     -9999.00      1.84464    
   12.7210     -9999.00      1.89124    
   12.9268     -9999.00      1.93901    
   13.1359     -9999.00      1.98799    
   13.3483     -9999.00      2.03821    
   13.5642     -9999.00      2.08970    
   13.7836     -9999.00      2.14248    
   14.0066     -9999.00      2.19660    
   14.2331     -9999.00      2.25209    
   14.4633     -9999.00      2.30779    
   14.6973     -9999.00      2.36382    
   14.9350     -9999.00      2.42121    
   15.1765     -9999.00      2.47999    
   15.4220     -9999.00      2.54019    
   15.6714     -9999.00      2.59824    
   15.9249     -9999.00      2.65520    
   16.1825     -9999.00      2.71341    
   16.4442     -9999.00      2.77289    
   16.7102     -9999.00      2.83368    
   16.9805     -9999.00      2.89580    
   17.2551     -9999.00      2.93918    
   17.5342     -9999.00      2.97486    
   17.8178     -9999.00      3.01098    
   18.1060     -9999.00      3.04754    
   18.3989     -9999.00      3.08454    
   18.6964     -9999.00      3.10571    
   18.9988     -9999.00      3.12696    
   19.3061     -9999.00      3.14835    
   19.6184     -9999.00      3.16989    
   19.9357     -9999.00      3.19158    
   20.2582     -9999.00      3.20066    
   20.5858     -9999.00      3.19641    
   20.9188     -9999.00      3.19218    
   21.2571     -9999.00      3.18794    
   21.6009     -9999.00      3.18372    
   21.9503     -9999.00      3.20429    
   22.3053     -9999.00      3.23365    
   22.6661     -9999.00      3.26327    
   23.0327     -9999.00      3.29317    
   23.4053     -9999.00      3.33041    
   23.7838     -9999.00      3.39669    
   24.1685     -9999.00      3.46428    
   24.5594     -9999.00      3.53322    
   24.9566     -9999.00      3.60353    
   25.3603     -9999.00      3.67524    
   25.7705     -9999.00      3.77578    
   26.1873     -9999.00      3.89227    
   26.6109     -9999.00      4.01236    
   27.0413     -9999.00      4.13615    
   27.4786     -9999.00      4.26376    
   27.9231     -9999.00      4.39530    
   28.3747     -9999.00      4.53091    
   28.8337     -9999.00      4.62195    
   29.3000      1.55250      4.70800    
   29.7739      1.65095      4.79565    
   30.2555      1.75782      4.88494    
   30.7449      1.88491      4.97588    
   31.2421      2.05397      5.06606    
   31.7475      2.22143      5.05780    
   32.2609      2.35311      5.04955    
   32.7827      2.47607      5.04132    
   33.3130      2.60841      5.03052    
   33.8518      2.72325      4.96290    
   34.3993      2.80297      4.89618    
   34.9557      2.86036      4.83037    
   35.5211      2.89811      4.76544    
   36.0956      2.91457      4.70138    
   36.6794      2.90141      4.63818    
   37.2727      2.84272      4.62331    
   37.8755      2.82023      4.64620    
   38.4882      2.81008      4.66919    
   39.1107      2.80357      4.69231    
   39.7432      2.79650      4.71553    
   40.3861      2.78488      4.73888    
   41.0393      2.75809      4.76233    
   41.7031      2.71601      4.82518    
   42.3776      2.70061      4.90395    
   43.0630      2.69952      4.98400    
   43.7595      2.70614      5.06536    
   44.4673      2.71923      5.14805    
   45.1865      2.73822      5.23209    
   45.9174      2.76319      5.31749    
   46.6600      2.79640      5.40430    
   47.4147      2.84070      5.48239    
   48.1816      2.87937      5.55441    
   48.9609      2.91623      5.62737    
   49.7528      2.95358      5.70128    
   50.5576      2.99171      5.77617    
   51.3753      3.03082      5.85204    
   52.2062      3.07096      5.92891    
   53.0506      3.11182      6.00680    
   53.9087      3.15229      6.08718    
   54.7806      3.19626      6.17057    
   55.6667      3.24312      6.25510    
   56.5670      3.29248      6.34079    
   57.4820      3.34450      6.42765    
   58.4117      3.39947      6.51570    
   59.3564      3.45809      6.60496    
   60.3165      3.52267      6.69510    
   61.2921      3.58913      6.77770    
   62.2834      3.65483      6.86131    
   63.2908      3.72132      6.94594    
   64.3145      3.78974      7.03163    
   65.3547      3.86074      7.11837    
   66.4118      3.93519      7.20618    
   67.4859      4.01481      7.29507    
   68.5775      4.10554      7.38506    
   69.6867      4.19980      7.45157    
   70.8138      4.28440      7.51585    
   71.9591      4.36355      7.58068    
   73.1230      4.44021      7.64608    
   74.3057      4.51487      7.71204    
   75.5076      4.58764      7.77857    
   76.7289      4.65810      7.84568    
   77.9699      4.72419      7.91545    
   79.2310      4.79179      7.99051    
   80.5125      4.86006      8.06628    
   81.8147      4.92776      8.14276    
   83.1380      4.99337      8.21997    
   84.4827      5.05290      8.29791    
   85.8491      5.10538      8.39171    
   87.2377      5.16992      8.49627    
   88.6487      5.24128      8.60214    
   90.0825      5.31708      8.70932    
   91.5395      5.39635      8.81783    
   93.0201      5.47815      8.92770    
   94.5246      5.56026      9.03894    
   96.0535      5.64431      9.16033    
   97.6071      5.73687      9.28568    
   99.1858      5.83662      9.41273    
   100.790      5.94242      9.54153    
   102.420      6.05439      9.67210    
   104.077      6.17308      9.80444    
   105.760      6.29976      9.93860    
   107.471      6.43882      10.0698    
   109.209      6.57818      10.1951    
   110.975      6.72074      10.3219    
   112.770      6.86839      10.4503    
   114.594      7.02241      10.5803    
   116.448      7.18406      10.7120    
   118.331      7.35528      10.8452    
   120.245      7.53972      10.9802    
   122.190      7.75079      11.1146    
   124.166      7.96258      11.2038    
   126.175      8.16451      11.2938    
   128.215      8.36282      11.3845    
   130.289      8.56273      11.4759    
   132.397      8.76607      11.5681    
   134.538      8.97450      11.6609    
   136.714      9.18969      11.7546    
   138.925      9.41378      11.8490    
   141.172      9.64975      11.9441    
   143.456      9.90432      12.0400    
   145.776      10.2133      12.1294    
   148.134      10.5082      12.1290    
   150.530      10.7700      12.1285    
   152.964      11.0196      12.1281    
   155.439      11.2631      12.1277    
   157.953      11.5037      12.1273    
   160.507      11.7441      12.1269    
   163.103      11.9864      12.1264    
   165.742      12.2338      12.1260    
   168.422      12.4914      12.1256    
   171.146      12.7849      12.1252    
   173.915      13.0838      12.0498    
   176.727      13.3422      11.9562    
   179.586      13.5797      11.8633    
   182.491      13.8046      11.7711    
   185.442      14.0205      11.6797    
   188.442      14.2300      11.5890    
   191.489      14.4352      11.4989    
   194.587      14.6390      11.4096    
   197.734      14.8493      11.3210    
   200.932      15.0630      11.2039    
   204.182      15.2549      11.0754    
   207.485      15.4288      10.9484    
   210.840      15.5918      10.8229    
   214.251      15.7413      10.6988    
   217.716      15.8852      10.5875    
   221.237      16.0285      10.4783    
   224.816      16.1694      10.3702    
   228.452      16.3074      10.2632    
   232.147      16.4429      10.1573    
   235.902      16.5762      10.0525    
   239.717      16.7082      9.94883    
   243.595      16.8443      9.84619    
   247.535      16.9763      9.73053    
   251.538      17.0989      9.61505    
   255.607      17.2157      9.50095    
   259.741      17.3280      9.38819    
   263.942      17.4364      9.27677    
   268.211      17.5414      9.16669    
   272.549      17.6433      9.05790    
   276.957      17.7423      8.95041    
   281.437      17.8389      8.84419    
   285.989      17.9333      8.73923    
   290.615      18.0260      8.63551    
   295.315      18.1173      8.53304    
   300.092      18.2081      8.43177    
   304.945      18.3060      8.32868    
   309.878      18.3963      8.21445    
   314.890      18.4777      8.10177    
   319.983      18.5545      7.99065    
   325.158      18.6275      7.88105    
   330.418      18.6971      7.77296    
   335.762      18.7639      7.66634    
   341.192      18.8279      7.56119    
   346.711      18.8896      7.45749    
   352.319      18.9493      7.35519    
   358.017      19.0082      7.25432    
   363.808      19.0655      7.15219    
   369.692      19.1193      7.05012    
   375.672      19.1703      6.94953    
   381.748      19.2194      6.85037    
   387.922      19.2671      6.75262    
   394.197      19.3142      6.65627    
   400.573      19.3616      6.56129    
   407.052      19.4153      6.46767    
   413.635      19.4783      6.35980    
   420.326      19.5225      6.23335    
   427.124      19.5525      6.10942    
   434.032      19.5728      5.98794    
   441.052      19.5846      5.86890    
   448.186      19.5880      5.75221    
   455.435      19.5829      5.63784    
   462.802      19.5496      5.53428    
   470.287      19.5269      5.46085    
   477.894      19.5179      5.38839    
   485.623      19.5118      5.31688    
   493.478      19.5081      5.24633    
   501.459      19.5065      5.17672    
   509.570      19.5176      5.10273    
   517.812      19.5193      5.01342    
   526.187      19.5094      4.92566    
   534.698      19.4943      4.83945    
   543.346      19.4746      4.75473    
   552.134      19.4507      4.67152    
   561.065      19.4230      4.58974    
   570.139      19.3917      4.50941    
   579.361      19.3608      4.43048    
   588.732      19.3260      4.34393    
   598.254      19.2803      4.25521    
   607.930      19.2260      4.16831    
   617.763      19.1641      4.08318    
   627.755      19.0949      3.99979    
   637.908      19.0192      3.91810    
   648.226      18.9384      3.83581    
   658.711      18.8451      3.74932    
   669.365      18.7389      3.66477    
   680.191      18.6199      3.58213    
   691.193      18.4873      3.50135    
   702.372      18.3346      3.42240    
   713.733      18.1634      3.35770    
   725.277      17.9871      3.30516    
   737.008      17.8009      3.25344    
   748.928      17.5999      3.20253    
   761.042      17.3802      3.15242    
   773.351      17.1401      3.10310    
   785.859      16.8765      3.04912    
   798.570      16.5705      2.98532    
   811.486      16.2143      2.92286    
   824.611      15.7988      2.86170    
   837.949      15.3072      2.80183    
   851.502      14.7270      2.74321    
   865.274      13.9964      2.65809    
   879.269      13.0270      2.57208    
   893.491      11.6745      2.49603    
   907.943      9.63107      2.43609    
   922.628      5.28471      2.25909    
   932.400     -18.0747      2.14991    
   932.600     -18.0552      18.4786    
   937.551      2.42254      18.2953    
   952.715      9.96436      17.7508    
   968.124      13.1149      17.2224    
   983.783      15.1297      16.7102    
   999.695      16.5865      16.2132    
   1015.86      17.6966      15.7311    
   1032.29      18.4996      15.2631    
   1048.99      19.0803      14.9435    
   1065.96      19.6526      14.7764    
   1083.20      20.2159      14.6112    
   1100.72      20.7495      14.4479    
   1118.52      21.2540      14.2865    
   1136.61      21.7327      14.1267    
   1155.00      22.1900      13.9688    
   1173.68      22.6303      13.8127    
   1192.66      23.0589      13.6583    
   1211.95      23.4828      13.5056    
   1231.55      23.9199      13.3547    
   1251.47      24.3712      13.1591    
   1271.72      24.8206      12.9133    
   1292.29      25.2016      12.6075    
   1313.19      25.5284      12.3091    
   1334.43      25.8205      12.0178    
   1356.01      26.0853      11.7333    
   1377.94      26.3272      11.4555    
   1400.23      26.5493      11.1844    
   1422.88      26.7542      10.9196    
   1445.89      26.9437      10.6611    
   1469.28      27.1195      10.4085    
   1493.04      27.2830      10.1616    
   1517.19      27.4346      9.91926    
   1541.73      27.5749      9.68255    
   1566.67      27.7052      9.45157    
   1592.01      27.8263      9.22606    
   1617.76      27.9391      9.00590    
   1643.92      28.0442      8.79103    
   1670.51      28.1425      8.58125    
   1697.53      28.2344      8.37649    
   1724.99      28.3230      8.17659    
   1752.89      28.4058      7.97676    
   1781.24      28.4810      7.78017    
   1810.05      28.5492      7.58711    
   1839.32      28.6108      7.39897    
   1869.07      28.6671      7.21555    
   1899.30      28.7187      7.03672    
   1930.02      28.7658      6.86213    
   1961.24      28.8086      6.69190    
   1992.96      28.8468      6.52606    
   2025.20      28.8850      6.36699    
   2057.95      28.9205      6.20664    
   2091.24      28.9508      6.05001    
   2125.06      28.9777      5.89702    
   2159.43      29.0016      5.74751    
   2194.36      29.0224      5.60115    
   2229.85      29.0402      5.45834    
   2265.92      29.0554      5.31903    
   2302.57      29.0685      5.18292    
   2339.81      29.0790      5.04977    
   2377.66      29.0874      4.92010    
   2416.11      29.0938      4.79321    
   2455.19      29.0982      4.66959    
   2494.90      29.1008      4.54872    
   2535.26      29.1016      4.43093    
   2576.26      29.1009      4.31615    
   2617.93      29.0987      4.20392    
   2660.27      29.0950      4.09434    
   2703.30      29.0900      3.98775    
   2747.03      29.0838      3.88362    
   2791.46      29.0763      3.78207    
   2836.61      29.0678      3.68302    
   2882.49      29.0582      3.58644    
   2929.11      29.0477      3.49224    
   2976.48      29.0362      3.40040    
   3024.63      29.0238      3.31086    
   3073.55      29.0107      3.22358    
   3123.26      28.9968      3.13847    
   3173.78      28.9822      3.05553    
   3225.11      28.9669      2.97464    
   3277.27      28.9510      2.89585    
   3330.28      28.9345      2.81902    
   3384.15      28.9174      2.74417    
   3438.88      28.8999      2.67122    
   3494.50      28.8818      2.60014    
   3551.02      28.8633      2.53085    
   3608.46      28.8444      2.46334    
   3666.82      28.8251      2.39757    
   3726.13      28.8053      2.33346    
   3786.40      28.7852      2.27105    
   3847.64      28.7648      2.21020    
   3909.87      28.7440      2.15092    
   3973.11      28.7230      2.09321    
   4037.38      28.7016      2.03696    
   4102.68      28.6799      1.98216    
   4169.03      28.6580      1.92878    
   4236.46      28.6357      1.87677    
   4304.98      28.6132      1.82613    
   4374.62      28.5903      1.77679    
   4445.37      28.5673      1.72877    
   4517.27      28.5440      1.68197    
   4590.33      28.5203      1.63632    
   4664.58      28.4963      1.59195    
   4740.03      28.4721      1.54870    
   4816.69      28.4476      1.50655    
   4894.60      28.4227      1.46552    
   4973.77      28.3975      1.42555    
   5054.21      28.3718      1.38663    
   5135.96      28.3459      1.34873    
   5219.03      28.3195      1.31182    
   5303.44      28.2926      1.27581    
   5389.22      28.2652      1.24083    
   5476.39      28.2374      1.20670    
   5564.97      28.2089      1.17344    
   5654.98      28.1798      1.14113    
   5746.44      28.1500      1.10956    
   5839.39      28.1194      1.07891    
   5933.83      28.0880      1.04895    
   6029.81      28.0556      1.01985    
   6127.33      28.0223     0.991530    
   6226.44      27.9878     0.963866    
   6327.15      27.9520     0.936946    
   6429.48      27.9147     0.910741    
   6533.48      27.8759     0.885194    
   6639.15      27.8352     0.860322    
   6746.54      27.7924     0.836094    
   6855.65      27.7473     0.812505    
   6966.54      27.6995     0.789511    
   7079.22      27.6485     0.767114    
   7193.72      27.5939     0.745298    
   7310.07      27.5350     0.724043    
   7428.31      27.4710     0.703338    
   7548.45      27.4009     0.683167    
   7670.54      27.3233     0.663518    
   7794.61      27.2366     0.644376    
   7920.68      27.1381     0.625722    
   8048.79      27.0246     0.607548    
   8178.98      26.8906     0.589836    
   8311.26      26.7281     0.572588    
   8445.69      26.5227     0.555773    
   8582.29      26.2467     0.539391    
   8721.11      25.8345     0.523425    
   8862.16      25.0487     0.507876    
   8978.80      17.5735     0.495545    
   8979.00      17.5739      3.85305    
   9005.50      23.5690      3.83652    
   9151.16      25.6405      3.74771    
   9299.17      26.3539      3.66034    
   9449.58      26.8037      3.57419    
   9602.42      27.1340      3.48938    
   9757.73      27.3949      3.40592    
   9915.55      27.6099      3.32398    
   10075.9      27.7922      3.24324    
   10238.9      27.9495      3.16389    
   10404.5      28.0873      3.08595    
   10572.8      28.2092      3.00942    
   10743.8      28.3179      2.93430    
   10917.6      28.4155      2.86061    
   11094.2      28.5035      2.78833    
   11273.6      28.5832      2.71747    
   11455.9      28.6557      2.64802    
   11641.2      28.7216      2.57999    
   11829.5      28.7818      2.51335    
   12020.8      28.8368      2.44811    
   12215.3      28.8872      2.38424    
   12412.8      28.9333      2.32175    
   12613.6      28.9756      2.26061    
   12817.6      29.0143      2.20082    
   13025.0      29.0497      2.14236    
   13235.6      29.0822      2.08521    
   13449.7      29.1120      2.02936    
   13667.2      29.1392      1.97479    
   13888.3      29.1641      1.92148    
   14112.9      29.1868      1.86942    
   14341.2      29.2074      1.81858    
   14573.1      29.2262      1.76895    
   14808.9      29.2433      1.72051    
   15048.4      29.2587      1.67324    
   15291.8      29.2726      1.62712    
   15539.1      29.2851      1.58213    
   15790.4      29.2963      1.53824    
   16045.8      29.3063      1.49545    
   16305.4      29.3151      1.45372    
   16569.1      29.3229      1.41304    
   16837.1      29.3296      1.37339    
   17109.4      29.3354      1.33475    
   17386.1      29.3404      1.29710    
   17667.4      29.3445      1.26041    
   17953.1      29.3479      1.22467    
   18243.5      29.3505      1.18985    
   18538.6      29.3526      1.15595    
   18838.4      29.3539      1.12294    
   19143.1      29.3547      1.09079    
   19452.7      29.3550      1.05949    
   19767.4      29.3548      1.02903    
   20087.1      29.3541     0.999375    
   20412.0      29.3530     0.970516    
   20742.1      29.3515     0.942433    
   21077.6      29.3496     0.915106    
   21418.5      29.3474     0.888521    
   21765.0      29.3449     0.862657    
   22117.0      29.3420     0.837500    
   22474.7      29.3389     0.813031    
   22838.2      29.3356     0.789233    
   23207.6      29.3320     0.766091    
   23583.0      29.3282     0.743588    
   23964.4      29.3242     0.721709    
   24352.0      29.3201     0.700438    
   24745.9      29.3157     0.679760    
   25146.2      29.3113     0.659660    
   25552.9      29.3067     0.640123    
   25966.2      29.3020     0.621136    
   26386.1      29.2972     0.602683    
   26812.9      29.2923     0.584752    
   27246.6      29.2873     0.567329    
   27687.3      29.2823     0.550400    
   28135.1      29.2772     0.533953    
   28590.2      29.2721     0.517976    
   29052.6      29.2669     0.502455    
   29522.5      29.2617     0.487378    
   30000.0      29.2564     0.472735    
