 dy, Z=66, (Energy (eV),f1,f2)
   10.0000     -9999.00     0.156345    
   10.1617     -9999.00     0.162099    
   10.3261     -9999.00     0.168065    
   10.4931     -9999.00     0.174250    
   10.6628     -9999.00     0.180663    
   10.8353     -9999.00     0.187312    
   11.0106     -9999.00     0.194206    
   11.1886     -9999.00     0.201353    
   11.3696     -9999.00     0.208763    
   11.5535     -9999.00     0.216541    
   11.7404     -9999.00     0.225052    
   11.9303     -9999.00     0.233897    
   12.1232     -9999.00     0.243090    
   12.3193     -9999.00     0.252644    
   12.5186     -9999.00     0.262574    
   12.7210     -9999.00     0.272830    
   12.9268     -9999.00     0.282908    
   13.1359     -9999.00     0.293358    
   13.3483     -9999.00     0.304194    
   13.5642     -9999.00     0.315431    
   13.7836     -9999.00     0.327082    
   14.0066     -9999.00     0.338746    
   14.2331     -9999.00     0.350598    
   14.4633     -9999.00     0.362864    
   14.6973     -9999.00     0.375560    
   14.9350     -9999.00     0.388700    
   15.1765     -9999.00     0.402300    
   15.4220     -9999.00     0.415498    
   15.6714     -9999.00     0.425747    
   15.9249     -9999.00     0.436249    
   16.1825     -9999.00     0.447010    
   16.4442     -9999.00     0.458036    
   16.7102     -9999.00     0.469334    
   16.9805     -9999.00     0.480911    
   17.2551     -9999.00     0.497649    
   17.5342     -9999.00     0.515360    
   17.8178     -9999.00     0.533703    
   18.1060     -9999.00     0.549374    
   18.3989     -9999.00     0.564746    
   18.6964     -9999.00     0.580548    
   18.9988     -9999.00     0.596792    
   19.3061     -9999.00     0.613491    
   19.6184     -9999.00     0.630657    
   19.9357     -9999.00     0.651601    
   20.2582     -9999.00     0.674639    
   20.5858     -9999.00     0.698491    
   20.9188     -9999.00     0.728655    
   21.2571     -9999.00     0.776166    
   21.6009     -9999.00     0.826776    
   21.9503     -9999.00     0.880685    
   22.3053     -9999.00     0.938109    
   22.6661     -9999.00      1.02212    
   23.0327     -9999.00      1.14378    
   23.4053     -9999.00      1.27993    
   23.7838     -9999.00      1.43228    
   24.1685     -9999.00      1.60276    
   24.5594     -9999.00      1.79354    
   24.9566     -9999.00      2.00703    
   25.3603     -9999.00      2.25646    
   25.7705     -9999.00      2.68871    
   26.1873     -9999.00      3.20377    
   26.6109     -9999.00      3.81749    
   27.0413     -9999.00      4.54878    
   27.4786     -9999.00      5.42016    
   27.9231     -9999.00      6.36575    
   28.3747     -9999.00      7.43996    
   28.8337     -9999.00      8.69544    
   29.3000     -6.57672      10.1628    
   29.7739     -5.87270      11.6252    
   30.2555     -5.13610      12.5089    
   30.7449     -4.39984      13.4597    
   31.2421     -3.39838      14.2200    
   31.7475     -2.54856      14.7955    
   32.2609     -1.67540      15.2859    
   32.7827    -0.825969      15.7306    
   33.3130     0.123986      16.0512    
   33.8518     0.951176      16.2649    
   34.3993      1.75178      16.4792    
   34.9557      2.56563      16.6664    
   35.5211      3.43631      16.8557    
   36.0956      4.50730      16.9295    
   36.6794      5.43657      16.6234    
   37.2727      6.20595      16.3228    
   37.8755      6.92833      15.9806    
   38.4882      7.52113      15.5783    
   39.1107      8.02132      15.1861    
   39.7432      8.45802      14.8038    
   40.3861      8.84224      14.4310    
   41.0393      9.18139      14.0677    
   41.7031      9.48073      13.7136    
   42.3776      9.74408      13.3683    
   43.0630      9.97417      13.0317    
   43.7595      10.1729      12.7036    
   44.4673      10.3411      12.3838    
   45.1865      10.4783      12.0720    
   45.9174      10.5816      11.7681    
   46.6600      10.6338      11.4718    
   47.4147      10.6237      11.2592    
   48.1816      10.6623      11.0953    
   48.9609      10.7198      10.9338    
   49.7528      10.7781      10.7746    
   50.5576      10.8334      10.6178    
   51.3753      10.8833      10.4632    
   52.2062      10.9256      10.3109    
   53.0506      10.9587      10.1608    
   53.9087      10.9804      10.0129    
   54.7806      10.9878      9.86711    
   55.6667      10.9763      9.72346    
   56.5670      10.9279      9.58192    
   57.4820      10.8148      9.51264    
   58.4117      10.7639      9.50207    
   59.3564      10.7457      9.49152    
   60.3165      10.7388      9.48097    
   61.2921      10.7389      9.47043    
   62.2834      10.7428      9.45992    
   63.2908      10.7478      9.44940    
   64.3145      10.7497      9.43890    
   65.3547      10.7383      9.43421    
   66.4118      10.7358      9.45333    
   67.4859      10.7436      9.47248    
   68.5775      10.7549      9.49168    
   69.6867      10.7669      9.51092    
   70.8138      10.7753      9.53020    
   71.9591      10.7686      9.55419    
   73.1230      10.7715      9.60986    
   74.3057      10.7894      9.66586    
   75.5076      10.8149      9.72219    
   76.7289      10.8461      9.77884    
   77.9699      10.8827      9.83579    
   79.2310      10.9223      9.88975    
   80.5125      10.9634      9.94401    
   81.8147      11.0062      9.99856    
   83.1380      11.0506      10.0534    
   84.4827      11.0967      10.1085    
   85.8491      11.1440      10.1636    
   87.2377      11.1923      10.2189    
   88.6487      11.2418      10.2745    
   90.0825      11.2926      10.3305    
   91.5395      11.3455      10.3862    
   93.0201      11.3984      10.4394    
   94.5246      11.4508      10.4929    
   96.0535      11.5031      10.5467    
   97.6071      11.5553      10.6007    
   99.1858      11.6036      10.6551    
   100.790      11.6601      10.7273    
   102.420      11.7453      10.8012    
   104.077      11.8403      10.8313    
   105.760      11.9188      10.8520    
   107.471      11.9958      10.8727    
   109.209      12.0918      10.8934    
   110.975      12.2277      10.8472    
   112.770      12.2875      10.7360    
   114.594      12.2998      10.6260    
   116.448      12.2814      10.5172    
   118.331      12.2522      10.3963    
   120.245      12.1652      10.2341    
   122.190      12.0202      10.0744    
   124.166      11.8211      9.91722    
   126.175      11.5665      9.76248    
   128.215      11.2517      9.61015    
   130.289      10.8697      9.46021    
   132.397      10.4156      9.31261    
   134.538      9.91001      9.13024    
   136.714      9.21241      8.86574    
   138.925      8.35458      8.58595    
   141.172      7.27634      7.92982    
   143.456      5.15563      7.19569    
   145.776      2.08340      6.63203    
   148.134     -3.41601      6.36699    
   150.530     -24.0330      10.6109    
   152.964     -8.99081      43.0103    
   155.439      5.66997      42.3561    
   157.953      14.2604      38.6166    
   160.507      19.2231      34.1930    
   163.103      22.0495      30.0280    
   165.742      21.8588      25.1011    
   168.422      20.7116      24.0887    
   171.146      20.6063      23.5993    
   173.915      20.8282      23.1198    
   176.727      21.1427      22.6501    
   179.586      21.4764      22.1899    
   182.491      21.7965      21.7391    
   185.442      22.0818      21.2974    
   188.442      22.2931      20.8647    
   191.489      22.4148      20.5495    
   194.587      22.6124      20.3399    
   197.734      22.8459      20.1324    
   200.932      23.0913      19.9271    
   204.182      23.3406      19.7238    
   207.485      23.5904      19.5226    
   210.840      23.8402      19.3235    
   214.251      24.1031      19.1264    
   217.716      24.3587      18.8891    
   221.237      24.5805      18.6442    
   224.816      24.7780      18.4024    
   228.452      24.9547      18.1638    
   232.147      25.1108      17.9283    
   235.902      25.2449      17.6958    
   239.717      25.3544      17.4664    
   243.595      25.4341      17.2399    
   247.535      25.4732      17.0164    
   251.538      25.3686      16.8597    
   255.607      25.3449      16.8517    
   259.741      25.3976      16.8436    
   263.942      25.4719      16.8355    
   268.211      25.5610      16.8275    
   272.549      25.6599      16.8194    
   276.957      25.7650      16.8113    
   281.437      25.8727      16.8033    
   285.989      25.9774      16.7953    
   290.615      26.0620      16.8020    
   295.315      26.1719      16.8434    
   300.092      26.3010      16.8849    
   304.945      26.4420      16.9265    
   309.878      26.5926      16.9682    
   314.890      26.7516      17.0100    
   319.983      26.9182      17.0519    
   325.158      27.0920      17.0939    
   330.418      27.2730      17.1360    
   335.762      27.4614      17.1782    
   341.192      27.6576      17.2205    
   346.711      27.8625      17.2629    
   352.319      28.0778      17.3054    
   358.017      28.3169      17.3480    
   363.808      28.5684      17.3575    
   369.692      28.8049      17.3508    
   375.672      29.0348      17.3442    
   381.748      29.2632      17.3376    
   387.922      29.4925      17.3310    
   394.197      29.7244      17.3243    
   400.573      29.9607      17.3177    
   407.052      30.2036      17.3111    
   413.635      30.4565      17.3045    
   420.326      30.7360      17.2979    
   427.124      31.0525      17.2485    
   434.032      31.3288      17.1415    
   441.052      31.5763      17.0351    
   448.186      31.8083      16.9294    
   455.435      32.0291      16.8243    
   462.802      32.2411      16.7199    
   470.287      32.4458      16.6162    
   477.894      32.6442      16.5131    
   485.623      32.8373      16.4106    
   493.478      33.0255      16.3087    
   501.459      33.2095      16.2075    
   509.570      33.3898      16.1069    
   517.812      33.5669      16.0070    
   526.187      33.7414      15.9077    
   534.698      33.9147      15.8089    
   543.346      34.0854      15.7078    
   552.134      34.2537      15.6072    
   561.065      34.4207      15.5073    
   570.139      34.5880      15.4080    
   579.361      34.7583      15.3093    
   588.732      34.9379      15.2113    
   598.254      35.1425      15.0849    
   607.930      35.3201      14.9213    
   617.763      35.4665      14.7593    
   627.755      35.5992      14.5992    
   637.908      35.7201      14.4408    
   648.226      35.8307      14.2841    
   658.711      35.9320      14.1291    
   669.365      36.0245      13.9757    
   680.191      36.1087      13.8241    
   691.193      36.1848      13.6741    
   702.372      36.2533      13.5257    
   713.733      36.3142      13.3789    
   725.277      36.3677      13.2338    
   737.008      36.4140      13.0902    
   748.928      36.4535      12.9481    
   761.042      36.4868      12.8076    
   773.351      36.5153      12.6686    
   785.859      36.5488      12.5312    
   798.570      36.5619      12.3619    
   811.486      36.5553      12.2042    
   824.611      36.5355      12.0485    
   837.949      36.5034      11.8947    
   851.502      36.4586      11.7409    
   865.274      36.3999      11.5867    
   879.269      36.3243      11.4324    
   893.491      36.2318      11.2802    
   907.943      36.1226      11.1300    
   922.628      35.9973      10.9816    
   937.551      35.8517      10.8296    
   952.715      35.6829      10.6781    
   968.124      35.4879      10.5273    
   983.783      35.2654      10.3785    
   999.695      35.0135      10.2311    
   1015.86      34.7301      10.0850    
   1032.29      34.4069      9.93350    
   1048.99      34.0370      9.78211    
   1065.96      33.6114      9.63075    
   1083.20      33.1223      9.48189    
   1100.72      32.5588      9.33537    
   1118.52      31.9053      9.19114    
   1136.61      31.1405      9.04900    
   1155.00      30.2339      8.90909    
   1173.68      29.1403      8.77139    
   1192.66      27.7890      8.63578    
   1211.95      26.0605      8.50233    
   1231.55      23.7284      8.37101    
   1251.47      20.2814      8.24241    
   1271.72      14.0795      8.11584    
   1292.29     -27.4577      7.99120    
   1292.50     -39.0629      7.98992    
   1292.70     -39.0403      39.8247    
   1313.19      15.8866      38.9272    
   1334.43      23.6486      38.0323    
   1356.01      28.2848      37.1579    
   1377.94      31.6049      36.3032    
   1400.23      34.1792      35.4682    
   1422.88      36.2638      34.6527    
   1445.89      37.9953      33.8557    
   1469.28      39.4545      33.0775    
   1493.04      40.6915      32.3179    
   1517.19      41.7397      31.5782    
   1541.73      42.6173      30.8559    
   1566.67      43.3278      30.1501    
   1592.01      43.8561      29.4603    
   1617.76      44.1493      28.7863    
   1643.92      44.0281      28.1277    
   1670.51      41.9749      27.4841    
   1675.50      36.5794      27.3661    
   1675.70      36.5970      31.9284    
   1697.53      44.8155      31.3940    
   1724.99      46.5352      30.7439    
   1752.89      47.6399      30.1069    
   1781.24      48.4403      29.4832    
   1810.05      48.9492      28.8729    
   1839.32      48.2011      28.2752    
   1841.70      46.4804      28.2277    
   1841.90      46.4965      30.0747    
   1869.07      50.4083      29.4647    
   1899.30      51.4658      28.8106    
   1930.02      52.2505      28.1710    
   1961.24      52.8789      27.5456    
   1992.96      53.3658      26.9339    
   2025.20      53.5881      26.3425    
   2046.70      52.4843      25.9604    
   2046.90      52.4989      27.0616    
   2057.95      53.9357      26.8737    
   2091.24      54.8910      26.3215    
   2125.06      55.5483      25.7762    
   2159.43      56.1056      25.2390    
   2194.36      56.6024      24.7089    
   2229.85      57.0532      24.1860    
   2265.92      57.4664      23.6712    
   2302.57      57.8475      23.1642    
   2339.81      58.2007      22.6656    
   2377.66      58.5287      22.1746    
   2416.11      58.8332      21.6918    
   2455.19      59.1168      21.2174    
   2494.90      59.3806      20.7505    
   2535.26      59.6258      20.2921    
   2576.26      59.8544      19.8421    
   2617.93      60.0671      19.3998    
   2660.27      60.2645      18.9655    
   2703.30      60.4477      18.5393    
   2747.03      60.6173      18.1213    
   2791.46      60.7745      17.7115    
   2836.61      60.9203      17.3097    
   2882.49      61.0545      16.9151    
   2929.11      61.1782      16.5291    
   2976.48      61.2919      16.1501    
   3024.63      61.3962      15.7791    
   3073.55      61.4911      15.4147    
   3123.26      61.5768      15.0586    
   3173.78      61.6548      14.7102    
   3225.11      61.7255      14.3687    
   3277.27      61.7882      14.0334    
   3330.28      61.8434      13.7063    
   3384.15      61.8923      13.3861    
   3438.88      61.9347      13.0725    
   3494.50      61.9709      12.7657    
   3551.02      62.0012      12.4656    
   3608.46      62.0260      12.1720    
   3666.82      62.0452      11.8848    
   3726.13      62.0594      11.6040    
   3786.40      62.0685      11.3293    
   3847.64      62.0729      11.0607    
   3909.87      62.0726      10.7981    
   3973.11      62.0678      10.5415    
   4037.38      62.0589      10.2906    
   4102.68      62.0458      10.0454    
   4169.03      62.0285      9.80560    
   4236.46      62.0072      9.57138    
   4304.98      61.9822      9.34258    
   4374.62      61.9535      9.11884    
   4445.37      61.9208      8.90030    
   4517.27      61.8845      8.68689    
   4590.33      61.8447      8.47839    
   4664.58      61.8013      8.27464    
   4740.03      61.7541      8.07557    
   4816.69      61.7033      7.88121    
   4894.60      61.6488      7.69137    
   4973.77      61.5905      7.50588    
   5054.21      61.5283      7.32483    
   5135.96      61.4622      7.14799    
   5219.03      61.3920      6.97523    
   5303.44      61.3174      6.80651    
   5389.22      61.2382      6.64187    
   5476.39      61.1543      6.48109    
   5564.97      61.0652      6.32400    
   5654.98      60.9706      6.17080    
   5746.44      60.8701      6.02107    
   5839.39      60.7631      5.87494    
   5933.83      60.6489      5.73228    
   6029.81      60.5268      5.59303    
   6127.33      60.3959      5.45695    
   6226.44      60.2548      5.32415    
   6327.15      60.1023      5.19454    
   6429.48      59.9367      5.06807    
   6533.48      59.7555      4.94443    
   6639.15      59.5560      4.82389    
   6746.54      59.3343      4.70604    
   6855.65      59.0852      4.59115    
   6966.54      58.8016      4.47901    
   7079.22      58.4729      4.36943    
   7193.72      58.0828      4.26249    
   7310.07      57.6038      4.15807    
   7428.31      56.9849      4.05627    
   7548.45      56.1101      3.95668    
   7670.54      54.6014      3.85952    
   7790.00      39.4034      3.76820    
   7790.20      39.4042      10.5382    
   7794.61      47.6200      10.5272    
   7920.68      54.8897      10.2205    
   8048.79      56.2386      9.92265    
   8178.98      56.8777      9.63359    
   8311.26      57.1090      9.35297    
   8445.69      56.9093      9.08041    
   8580.50      49.6117      8.81917    
   8580.70      49.6140      12.2874    
   8582.29      52.5864      12.2831    
   8721.11      57.6088      11.9235    
   8862.16      58.4433      11.5744    
   9005.50      58.4008      11.2353    
   9045.70      55.4366      11.1429    
   9045.90      55.4388      12.8122    
   9151.16      59.4861      12.5914    
   9299.17      60.4375      12.2916    
   9449.58      61.1011      11.9972    
   9602.42      61.6335      11.7082    
   9757.73      62.0826      11.4246    
   9915.55      62.4717      11.1469    
   10075.9      62.8144      10.8742    
   10238.9      63.1190      10.6070    
   10404.5      63.3920      10.3452    
   10572.8      63.6380      10.0887    
   10743.8      63.8606      9.83754    
   10917.6      64.0626      9.59162    
   11094.2      64.2465      9.35091    
   11273.6      64.4140      9.11536    
   11455.9      64.5669      8.88491    
   11641.2      64.7065      8.65950    
   11829.5      64.8340      8.43906    
   12020.8      64.9505      8.22354    
   12215.3      65.0569      8.01285    
   12412.8      65.1540      7.80695    
   12613.6      65.2425      7.60574    
   12817.6      65.3232      7.40918    
   13025.0      65.3965      7.21716    
   13235.6      65.4630      7.02963    
   13449.7      65.5233      6.84651    
   13667.2      65.5777      6.66772    
   13888.3      65.6266      6.49319    
   14112.9      65.6705      6.32283    
   14341.2      65.7097      6.15658    
   14573.1      65.7444      5.99435    
   14808.9      65.7751      5.83608    
   15048.4      65.8019      5.68167    
   15291.8      65.8251      5.53107    
   15539.1      65.8449      5.38418    
   15790.4      65.8616      5.24094    
   16045.8      65.8754      5.10127    
   16305.4      65.8865      4.96509    
   16569.1      65.8950      4.83233    
   16837.1      65.9011      4.70292    
   17109.4      65.9049      4.57680    
   17386.1      65.9067      4.45387    
   17667.4      65.9065      4.33408    
   17953.1      65.9044      4.21735    
   18243.5      65.9007      4.10362    
   18538.6      65.8953      3.99281    
   18838.4      65.8885      3.88487    
   19143.1      65.8802      3.77972    
   19452.7      65.8707      3.67731    
   19767.4      65.8599      3.57755    
   20087.1      65.8480      3.48041    
   20412.0      65.8351      3.38580    
   20742.1      65.8212      3.29368    
   21077.6      65.8063      3.20397    
   21418.5      65.7906      3.11663    
   21765.0      65.7740      3.03159    
   22117.0      65.7567      2.94881    
   22474.7      65.7388      2.86822    
   22838.2      65.7201      2.78977    
   23207.6      65.7009      2.71340    
   23583.0      65.6810      2.63907    
   23964.4      65.6607      2.56672    
   24352.0      65.6398      2.49631    
   24745.9      65.6185      2.42778    
   25146.2      65.5967      2.36109    
   25552.9      65.5745      2.29619    
   25966.2      65.5519      2.23304    
   26386.1      65.5289      2.17158    
   26812.9      65.5055      2.11178    
   27246.6      65.4818      2.05360    
   27687.3      65.4577      1.99698    
   28135.1      65.4334      1.94190    
   28590.2      65.4088      1.88830    
   29052.6      65.3841      1.83616    
   29522.5      65.3639      1.78543    
   30000.0      65.3175      1.73608    
