 er, Z=68, (Energy (eV),f1,f2)
   10.0000     -9999.00     0.183326    
   10.1617     -9999.00     0.186265    
   10.3261     -9999.00     0.189251    
   10.4931     -9999.00     0.192286    
   10.6628     -9999.00     0.195368    
   10.8353     -9999.00     0.198501    
   11.0106     -9999.00     0.201683    
   11.1886     -9999.00     0.207387    
   11.3696     -9999.00     0.213987    
   11.5535     -9999.00     0.220796    
   11.7404     -9999.00     0.227823    
   11.9303     -9999.00     0.235072    
   12.1232     -9999.00     0.242553    
   12.3193     -9999.00     0.250432    
   12.5186     -9999.00     0.258593    
   12.7210     -9999.00     0.267020    
   12.9268     -9999.00     0.275721    
   13.1359     -9999.00     0.284706    
   13.3483     -9999.00     0.293984    
   13.5642     -9999.00     0.303546    
   13.7836     -9999.00     0.312450    
   14.0066     -9999.00     0.321615    
   14.2331     -9999.00     0.331050    
   14.4633     -9999.00     0.340761    
   14.6973     -9999.00     0.350757    
   14.9350     -9999.00     0.361227    
   15.1765     -9999.00     0.372211    
   15.4220     -9999.00     0.383528    
   15.6714     -9999.00     0.395190    
   15.9249     -9999.00     0.407206    
   16.1825     -9999.00     0.419588    
   16.4442     -9999.00     0.432346    
   16.7102     -9999.00     0.445503    
   16.9805     -9999.00     0.459197    
   17.2551     -9999.00     0.473311    
   17.5342     -9999.00     0.487860    
   17.8178     -9999.00     0.502855    
   18.1060     -9999.00     0.518312    
   18.3989     -9999.00     0.534244    
   18.6964     -9999.00     0.550665    
   18.9988     -9999.00     0.565831    
   19.3061     -9999.00     0.581023    
   19.6184     -9999.00     0.596622    
   19.9357     -9999.00     0.612641    
   20.2582     -9999.00     0.629090    
   20.5858     -9999.00     0.647086    
   20.9188     -9999.00     0.668378    
   21.2571     -9999.00     0.690372    
   21.6009     -9999.00     0.713088    
   21.9503     -9999.00     0.736552    
   22.3053     -9999.00     0.760789    
   22.6661     -9999.00     0.808368    
   23.0327     -9999.00     0.866467    
   23.4053     -9999.00     0.928741    
   23.7838     -9999.00      1.01712    
   24.1685     -9999.00      1.12317    
   24.5594     -9999.00      1.25529    
   24.9566     -9999.00      1.46146    
   25.3603     -9999.00      1.84167    
   25.7705     -9999.00      2.76004    
   26.1873     -9999.00      5.13353    
   26.6109     -9999.00      6.94578    
   27.0413     -9999.00      7.87961    
   27.4786     -9999.00      8.83283    
   27.9231     -9999.00      9.83569    
   28.3747     -9999.00      10.9384    
   28.8337     -9999.00      11.6621    
   29.3000     -2.73063      12.2610    
   29.7739     -1.95191      13.0525    
   30.2555    -0.742260      13.5835    
   30.7449     0.250293      13.8024    
   31.2421      1.12926      13.8277    
   31.7475      1.88863      13.8468    
   32.2609      2.59966      13.8659    
   32.7827      3.34200      13.8851    
   33.3130      4.23651      13.8898    
   33.8518      4.98066      13.3269    
   34.3993      5.32013      12.8719    
   34.9557      5.62060      12.6044    
   35.5211      5.87936      12.3461    
   36.0956      6.11641      12.1890    
   36.6794      6.35647      12.0340    
   37.2727      6.58638      11.9191    
   37.8755      6.84161      11.8171    
   38.4882      7.12835      11.7060    
   39.1107      7.39132      11.5161    
   39.7432      7.60185      11.3294    
   40.3861      7.76097      11.1457    
   41.0393      7.90517      11.0421    
   41.7031      8.09098      10.9494    
   42.3776      8.33547      10.8236    
   43.0630      8.51915      10.5795    
   43.7595      8.60912      10.3410    
   44.4673      8.57795      10.1455    
   45.1865      8.58166      10.1096    
   45.9174      8.64159      10.0738    
   46.6600      8.72478      10.0382    
   47.4147      8.83138      9.99634    
   48.1816      8.93235      9.92770    
   48.9609      9.02207      9.85955    
   49.7528      9.10524      9.79185    
   50.5576      9.18206      9.72462    
   51.3753      9.25183      9.65786    
   52.2062      9.31316      9.59154    
   53.0506      9.36055      9.52569    
   53.9087      9.37819      9.47149    
   54.7806      9.40829      9.46039    
   55.6667      9.45442      9.44931    
   56.5670      9.50604      9.43825    
   57.4820      9.56055      9.42719    
   58.4117      9.61741      9.41615    
   59.3564      9.67422      9.40065    
   60.3165      9.72739      9.38457    
   61.2921      9.77693      9.36853    
   62.2834      9.82234      9.35251    
   63.2908      9.86234      9.33653    
   64.3145      9.89288      9.32056    
   65.3547      9.90107      9.31397    
   66.4118      9.91942      9.33646    
   67.4859      9.94805      9.35900    
   68.5775      9.97884      9.38160    
   69.6867      10.0089      9.40425    
   70.8138      10.0339      9.42696    
   71.9591      10.0419      9.44972    
   73.1230      10.0528      9.51613    
   74.3057      10.0835      9.58503    
   75.5076      10.1246      9.65443    
   76.7289      10.1732      9.72434    
   77.9699      10.2282      9.79475    
   79.2310      10.2895      9.86567    
   80.5125      10.3576      9.93711    
   81.8147      10.4338      10.0091    
   83.1380      10.5243      10.0815    
   84.4827      10.6548      10.1356    
   85.8491      10.7585      10.1360    
   87.2377      10.8350      10.1365    
   88.6487      10.8977      10.1370    
   90.0825      10.9484      10.1375    
   91.5395      10.9869      10.1380    
   93.0201      11.0113      10.1384    
   94.5246      11.0127      10.1389    
   96.0535      10.9665      10.1773    
   97.6071      10.9543      10.2588    
   99.1858      10.9633      10.3410    
   100.790      10.9784      10.4238    
   102.420      10.9970      10.5073    
   104.077      11.0171      10.5914    
   105.760      11.0367      10.6762    
   107.471      11.0521      10.7617    
   109.209      11.0472      10.8593    
   110.975      11.0606      10.9856    
   112.770      11.0915      11.1134    
   114.594      11.1345      11.2428    
   116.448      11.2007      11.3719    
   118.331      11.2648      11.4649    
   120.245      11.3165      11.5586    
   122.190      11.3634      11.6530    
   124.166      11.4081      11.7483    
   126.175      11.4521      11.8443    
   128.215      11.4978      11.9411    
   130.289      11.5501      12.0386    
   132.397      11.6208      12.1370    
   134.538      11.7631      12.2362    
   136.714      11.8961      12.1120    
   138.925      11.9053      11.9560    
   141.172      11.8264      11.8020    
   143.456      11.7493      11.6248    
   145.776      11.4824      11.2123    
   148.134      10.9788      10.8145    
   150.530      10.4106      10.4307    
   152.964      9.24113      9.33994    
   155.439      6.60109      7.97383    
   157.953     0.699302      7.46300    
   160.507     -18.0091      18.4903    
   163.103      11.6185      41.4954    
   165.742      17.9520      26.9251    
   168.422      16.7470      23.7117    
   171.146      16.5718      21.6199    
   173.915      16.3940      21.2039    
   176.727      16.6261      20.8436    
   179.586      16.8618      20.4894    
   182.491      17.0784      20.3337    
   185.442      17.3628      20.2227    
   188.442      17.6820      20.1123    
   191.489      17.9978      20.0026    
   194.587      18.3018      19.8934    
   197.734      18.5863      19.7849    
   200.932      18.8199      19.6769    
   204.182      19.0536      19.6529    
   207.485      19.3125      19.6307    
   210.840      19.5784      19.6085    
   214.251      19.8459      19.5864    
   217.716      20.1130      19.5643    
   221.237      20.3786      19.5422    
   224.816      20.6422      19.5201    
   228.452      20.9034      19.4981    
   232.147      21.1624      19.4761    
   235.902      21.4192      19.4541    
   239.717      21.6747      19.4321    
   243.595      21.9369      19.4079    
   247.535      22.1896      19.3668    
   251.538      22.4293      19.3258    
   255.607      22.6601      19.2848    
   259.741      22.8818      19.2440    
   263.942      23.0937      19.2032    
   268.211      23.2935      19.1625    
   272.549      23.4771      19.1219    
   276.957      23.6234      19.0814    
   281.437      23.7205      19.1038    
   285.989      23.8736      19.1976    
   290.615      24.0642      19.2920    
   295.315      24.2775      19.3868    
   300.092      24.5094      19.4821    
   304.945      24.7587      19.5778    
   309.878      25.0266      19.6741    
   314.890      25.3157      19.7707    
   319.983      25.6317      19.8679    
   325.158      26.0484      19.9431    
   330.418      26.4271      19.8845    
   335.762      26.7457      19.8261    
   341.192      27.0433      19.7679    
   346.711      27.3262      19.7098    
   352.319      27.5978      19.6519    
   358.017      27.8597      19.5942    
   363.808      28.1127      19.5366    
   369.692      28.3561      19.4792    
   375.672      28.5845      19.4220    
   381.748      28.8014      19.3892    
   387.922      29.0283      19.3686    
   394.197      29.2645      19.3480    
   400.573      29.5038      19.3275    
   407.052      29.7456      19.3069    
   413.635      29.9896      19.2864    
   420.326      30.2362      19.2659    
   427.124      30.4853      19.2454    
   434.032      30.7377      19.2250    
   441.052      30.9939      19.2046    
   448.186      31.2550      19.1842    
   455.435      31.5226      19.1638    
   462.802      31.7995      19.1434    
   470.287      32.0909      19.1231    
   477.894      32.4336      19.0746    
   485.623      32.7461      18.9661    
   493.478      33.0228      18.8582    
   501.459      33.2881      18.7509    
   509.570      33.5452      18.6443    
   517.812      33.7965      18.5382    
   526.187      34.0436      18.4327    
   534.698      34.2885      18.3279    
   543.346      34.5332      18.2237    
   552.134      34.7796      18.1200    
   561.065      35.0527      18.0169    
   570.139      35.3183      17.8598    
   579.361      35.5546      17.6997    
   588.732      35.7765      17.5392    
   598.254      35.9876      17.3791    
   607.930      36.1907      17.2204    
   617.763      36.3888      17.0632    
   627.755      36.5887      16.9062    
   637.908      36.7889      16.7355    
   648.226      36.9801      16.5443    
   658.711      37.1417      16.3408    
   669.365      37.2741      16.1398    
   680.191      37.3823      15.9689    
   691.193      37.4969      15.8208    
   702.372      37.6359      15.6781    
   713.733      37.7810      15.5108    
   725.277      37.9056      15.3277    
   737.008      38.0150      15.1470    
   748.928      38.1141      14.9684    
   761.042      38.2051      14.7916    
   773.351      38.2905      14.6150    
   785.859      38.3687      14.4335    
   798.570      38.4324      14.2485    
   811.486      38.4835      14.0659    
   824.611      38.5238      13.8856    
   837.949      38.5546      13.7075    
   851.502      38.5757      13.5298    
   865.274      38.5865      13.3520    
   879.269      38.5843      13.1746    
   893.491      38.5701      12.9997    
   907.943      38.5448      12.8270    
   922.628      38.5108      12.6565    
   937.551      38.4632      12.4790    
   952.715      38.3992      12.3014    
   968.124      38.3162      12.1241    
   983.783      38.2158      11.9497    
   999.695      38.0987      11.7763    
   1015.86      37.9658      11.6039    
   1032.29      37.8084      11.4213    
   1048.99      37.6226      11.2393    
   1065.96      37.4050      11.0578    
   1083.20      37.1543      10.8793    
   1100.72      36.8681      10.7037    
   1118.52      36.5425      10.5308    
   1136.61      36.1727      10.3608    
   1155.00      35.7521      10.1936    
   1173.68      35.2724      10.0290    
   1192.66      34.7229      9.86702    
   1211.95      34.0892      9.70770    
   1231.55      33.3520      9.55095    
   1251.47      32.4843      9.39710    
   1271.72      31.4471      9.24621    
   1292.29      30.1812      9.09833    
   1313.19      28.5886      8.95259    
   1334.43      26.4926      8.80930    
   1356.01      23.5260      8.66848    
   1377.94      18.6945      8.52971    
   1400.23      6.71894      8.39314    
   1409.20     -38.9950      8.33940    
   1409.40     -38.9702      40.5887    
   1422.88      12.0296      40.0367    
   1445.89      22.8727      39.1231    
   1469.28      28.4128      38.2306    
   1493.04      32.1810      37.3590    
   1517.19      35.0307      36.5107    
   1541.73      37.3061      35.6821    
   1566.67      39.1804      34.8723    
   1592.01      40.7524      34.0811    
   1617.76      42.0826      33.3076    
   1643.92      43.2077      32.5514    
   1670.51      44.1483      31.8125    
   1697.53      44.9099      31.0907    
   1724.99      45.4772      30.3855    
   1752.89      45.7895      29.6961    
   1781.24      45.6264      29.0223    
   1810.05      42.0381      28.3638    
   1811.70      37.8317      28.3268    
   1811.90      37.8489      33.0892    
   1839.32      47.0044      32.3649    
   1869.07      48.7071      31.6088    
   1899.30      49.8324      30.8705    
   1930.02      50.6519      30.1494    
   1961.24      51.1967      29.4453    
   1992.96      51.0989      28.7576    
   2005.70      48.6219      28.4891    
   2005.90      48.6389      30.4855    
   2025.20      52.1298      30.0719    
   2057.95      53.3485      29.3915    
   2091.24      54.1709      28.7264    
   2125.06      54.8029      28.0763    
   2159.43      55.2620      27.4414    
   2194.36      55.2803      26.8202    
   2206.40      53.9070      26.6116    
   2206.60      53.9201      27.7968    
   2229.85      56.1185      27.4134    
   2265.92      56.9651      26.8368    
   2302.57      57.6084      26.2695    
   2339.81      58.1614      25.7109    
   2377.66      58.6554      25.1620    
   2416.11      59.1039      24.6217    
   2455.19      59.5152      24.0912    
   2494.90      59.8945      23.5691    
   2535.26      60.2448      23.0561    
   2576.26      60.5696      22.5527    
   2617.93      60.8714      22.0580    
   2660.27      61.1516      21.5720    
   2703.30      61.4121      21.0955    
   2747.03      61.6543      20.6275    
   2791.46      61.8794      20.1689    
   2836.61      62.0892      19.7190    
   2882.49      62.2837      19.2769    
   2929.11      62.4636      18.8439    
   2976.48      62.6312      18.4201    
   3024.63      62.7865      18.0035    
   3073.55      62.9290      17.5956    
   3123.26      63.0612      17.1967    
   3173.78      63.1830      16.8048    
   3225.11      63.2947      16.4215    
   3277.27      63.3968      16.0456    
   3330.28      63.4902      15.6781    
   3384.15      63.5753      15.3177    
   3438.88      63.6518      14.9649    
   3494.50      63.7213      14.6202    
   3551.02      63.7838      14.2821    
   3608.46      63.8388      13.9507    
   3666.82      63.8869      13.6268    
   3726.13      63.9288      13.3099    
   3786.40      63.9648      12.9998    
   3847.64      63.9950      12.6964    
   3909.87      64.0197      12.3997    
   3973.11      64.0390      12.1093    
   4037.38      64.0533      11.8252    
   4102.68      64.0627      11.5473    
   4169.03      64.0673      11.2755    
   4236.46      64.0674      11.0098    
   4304.98      64.0631      10.7499    
   4374.62      64.0545      10.4956    
   4445.37      64.0417      10.2471    
   4517.27      64.0249      10.0040    
   4590.33      64.0041      9.76644    
   4664.58      63.9796      9.53405    
   4740.03      63.9511      9.30684    
   4816.69      63.9188      9.08480    
   4894.60      63.8829      8.86763    
   4973.77      63.8432      8.65548    
   5054.21      63.7999      8.44800    
   5135.96      63.7528      8.24524    
   5219.03      63.7019      8.04688    
   5303.44      63.6471      7.85317    
   5389.22      63.5884      7.66372    
   5476.39      63.5257      7.47864    
   5564.97      63.4588      7.29775    
   5654.98      63.3877      7.12095    
   5746.44      63.3120      6.94801    
   5839.39      63.2313      6.77909    
   5933.83      63.1457      6.61398    
   6029.81      63.0545      6.45254    
   6127.33      62.9574      6.29492    
   6226.44      62.8540      6.14069    
   6327.15      62.7435      5.99012    
   6429.48      62.6252      5.84282    
   6533.48      62.4984      5.69901    
   6639.15      62.3618      5.55832    
   6746.54      62.2143      5.42089    
   6855.65      62.0540      5.28650    
   6966.54      61.8791      5.15530    
   7079.22      61.6868      5.02685    
   7193.72      61.4737      4.90141    
   7310.07      61.2351      4.77871    
   7428.31      60.9648      4.65904    
   7548.45      60.6537      4.54189    
   7670.54      60.2878      4.42752    
   7794.61      59.8448      4.31558    
   7920.68      59.2846      4.20616    
   8048.79      58.5238      4.09925    
   8178.98      57.3345      3.99475    
   8311.26      54.4278      3.89259    
   8357.80      40.9938      3.85766    
   8358.00      40.9947      10.7476    
   8445.69      55.9215      10.5401    
   8582.29      57.9179      10.2289    
   8721.11      58.8085      9.92690    
   8862.16      59.2467      9.63385    
   9005.50      59.3315      9.34914    
   9151.16      58.8895      9.07307    
   9264.20      51.5037      8.86737    
   9264.40      51.5058      12.3854    
   9299.17      57.9459      12.2981    
   9449.58      60.0307      11.9309    
   9602.42      60.6958      11.5751    
   9751.20      57.5653      11.2441    
   9751.40      57.5668      12.9154    
   9757.73      59.8201      12.8932    
   9915.55      62.0647      12.3549    
   10075.9      62.7355      12.0806    
   10238.9      63.3073      11.8099    
   10404.5      63.7777      11.5428    
   10572.8      64.1848      11.2794    
   10743.8      64.5429      11.0199    
   10917.6      64.8618      10.7643    
   11094.2      65.1482      10.5126    
   11273.6      65.4071      10.2650    
   11455.9      65.6420      10.0216    
   11641.2      65.8561      9.78223    
   11829.5      66.0515      9.54707    
   12020.8      66.2304      9.31613    
   12215.3      66.3942      9.08939    
   12412.8      66.5445      8.86689    
   12613.6      66.6823      8.64860    
   12817.6      66.8088      8.43455    
   13025.0      66.9248      8.22470    
   13235.6      67.0312      8.01905    
   13449.7      67.1287      7.81757    
   13667.2      67.2179      7.62024    
   13888.3      67.2995      7.42703    
   14112.9      67.3740      7.23791    
   14341.2      67.4417      7.05283    
   14573.1      67.5034      6.87176    
   14808.9      67.5592      6.69466    
   15048.4      67.6096      6.52147    
   15291.8      67.6549      6.35216    
   15539.1      67.6956      6.18667    
   15790.4      67.7318      6.02494    
   16045.8      67.7638      5.86694    
   16305.4      67.7919      5.71260    
   16569.1      67.8164      5.56187    
   16837.1      67.8375      5.41468    
   17109.4      67.8554      5.27099    
   17386.1      67.8702      5.13074    
   17667.4      67.8822      4.99385    
   17953.1      67.8916      4.86029    
   18243.5      67.8985      4.72998    
   18538.6      67.9031      4.60287    
   18838.4      67.9054      4.47889    
   19143.1      67.9058      4.35800    
   19452.7      67.9042      4.24012    
   19767.4      67.9008      4.12520    
   20087.1      67.8957      4.01317    
   20412.0      67.8891      3.90399    
   20742.1      67.8809      3.79758    
   21077.6      67.8714      3.69390    
   21418.5      67.8606      3.59288    
   21765.0      67.8486      3.49447    
   22117.0      67.8355      3.39861    
   22474.7      67.8213      3.30524    
   22838.2      67.8061      3.21431    
   23207.6      67.7900      3.12577    
   23583.0      67.7730      3.03955    
   23964.4      67.7552      2.95561    
   24352.0      67.7367      2.87390    
   24745.9      67.7175      2.79435    
   25146.2      67.6976      2.71693    
   25552.9      67.6771      2.64158    
   25966.2      67.6560      2.56826    
   26386.1      67.6343      2.49690    
   26812.9      67.6122      2.42747    
   27246.6      67.5896      2.35992    
   27687.3      67.5665      2.29420    
   28135.1      67.5431      2.23027    
   28590.2      67.5193      2.16808    
   29052.6      67.4955      2.10759    
   29522.5      67.4768      2.04876    
   30000.0      67.4279      1.99154    
