 eu, Z=63, (Energy (eV),f1,f2)
   10.0000     -9999.00     0.185834    
   10.1617     -9999.00     0.194890    
   10.3261     -9999.00     0.204387    
   10.4931     -9999.00     0.214346    
   10.6628     -9999.00     0.224791    
   10.8353     -9999.00     0.235293    
   11.0106     -9999.00     0.245981    
   11.1886     -9999.00     0.257155    
   11.3696     -9999.00     0.268172    
   11.5535     -9999.00     0.278545    
   11.7404     -9999.00     0.289319    
   11.9303     -9999.00     0.300510    
   12.1232     -9999.00     0.310819    
   12.3193     -9999.00     0.321127    
   12.5186     -9999.00     0.331777    
   12.7210     -9999.00     0.343044    
   12.9268     -9999.00     0.355778    
   13.1359     -9999.00     0.368984    
   13.3483     -9999.00     0.382680    
   13.5642     -9999.00     0.396727    
   13.7836     -9999.00     0.408295    
   14.0066     -9999.00     0.421248    
   14.2331     -9999.00     0.434613    
   14.4633     -9999.00     0.448402    
   14.6973     -9999.00     0.462407    
   14.9350     -9999.00     0.476622    
   15.1765     -9999.00     0.491273    
   15.4220     -9999.00     0.506375    
   15.6714     -9999.00     0.520948    
   15.9249     -9999.00     0.533821    
   16.1825     -9999.00     0.547013    
   16.4442     -9999.00     0.560531    
   16.7102     -9999.00     0.575321    
   16.9805     -9999.00     0.592399    
   17.2551     -9999.00     0.609983    
   17.5342     -9999.00     0.628090    
   17.8178     -9999.00     0.646792    
   18.1060     -9999.00     0.666166    
   18.3989     -9999.00     0.686121    
   18.6964     -9999.00     0.706672    
   18.9988     -9999.00     0.729930    
   19.3061     -9999.00     0.757327    
   19.6184     -9999.00     0.785752    
   19.9357     -9999.00     0.828093    
   20.2582     -9999.00     0.883875    
   20.5858     -9999.00     0.969026    
   20.9188     -9999.00      1.13042    
   21.2571     -9999.00      1.32975    
   21.6009     -9999.00      1.70929    
   21.9503     -9999.00      2.05425    
   22.3053     -9999.00      2.56963    
   22.6661     -9999.00      3.13395    
   23.0327     -9999.00      3.66446    
   23.4053     -9999.00      4.52170    
   23.7838     -9999.00      5.20343    
   24.1685     -9999.00      7.07901    
   24.5594     -9999.00      9.05336    
   24.9566     -9999.00      10.2633    
   25.3603     -9999.00      11.5457    
   25.7705     -9999.00      12.7844    
   26.1873     -9999.00      13.8159    
   26.6109     -9999.00      14.4928    
   27.0413     -9999.00      15.1669    
   27.4786     -9999.00      15.7859    
   27.9231     -9999.00      16.4302    
   28.3747     -9999.00      16.6264    
   28.8337     -9999.00      16.7421    
   29.3000      2.90775      16.6530    
   29.7739      3.78453      16.4964    
   30.2555      4.56983      16.3413    
   30.7449      5.32570      16.1876    
   31.2421      6.10863      16.0354    
   31.7475      6.84178      15.6642    
   32.2609      7.43599      15.2938    
   32.7827      7.94986      14.9321    
   33.3130      8.40654      14.5857    
   33.8518      8.82127      14.2480    
   34.3993      9.20011      13.9181    
   34.9557      9.54888      13.5958    
   35.5211      9.87542      13.2810    
   36.0956      10.1961      12.9544    
   36.6794      10.4654      12.6023    
   37.2727      10.6860      12.2597    
   37.8755      10.8538      11.9337    
   38.4882      11.0174      11.6753    
   39.1107      11.2016      11.4225    
   39.7432      11.4252      11.1436    
   40.3861      11.5809      10.7662    
   41.0393      11.6367      10.4016    
   41.7031      11.5785      10.1419    
   42.3776      11.5956      9.96463    
   43.0630      11.6444      9.79047    
   43.7595      11.7056      9.61347    
   44.4673      11.7590      9.42618    
   45.1865      11.8043      9.24253    
   45.9174      11.8464      9.05803    
   46.6600      11.8683      8.86355    
   47.4147      11.8631      8.67326    
   48.1816      11.8132      8.50177    
   48.9609      11.7755      8.40426    
   49.7528      11.7612      8.30787    
   50.5576      11.7572      8.21258    
   51.3753      11.7588      8.11839    
   52.2062      11.7586      8.01433    
   53.0506      11.7493      7.91129    
   53.9087      11.7292      7.80956    
   54.7806      11.6884      7.70914    
   55.6667      11.6316      7.65364    
   56.5670      11.5979      7.61209    
   57.4820      11.5750      7.57077    
   58.4117      11.5539      7.52968    
   59.3564      11.5292      7.48880    
   60.3165      11.5057      7.46055    
   61.2921      11.4858      7.43243    
   62.2834      11.4646      7.40444    
   63.2908      11.4362      7.37655    
   64.3145      11.4042      7.36661    
   65.3547      11.3799      7.36103    
   66.4118      11.3561      7.35546    
   67.4859      11.3245      7.34990    
   68.5775      11.2826      7.37037    
   69.6867      11.2639      7.40702    
   70.8138      11.2595      7.44385    
   71.9591      11.2684      7.48088    
   73.1230      11.2940      7.50884    
   74.3057      11.3207      7.51287    
   75.5076      11.3358      7.51134    
   76.7289      11.3441      7.50981    
   77.9699      11.3490      7.50827    
   79.2310      11.3511      7.50674    
   80.5125      11.3511      7.50521    
   81.8147      11.3494      7.50368    
   83.1380      11.3469      7.50215    
   84.4827      11.3461      7.50062    
   85.8491      11.3566      7.49192    
   87.2377      11.3523      7.45646    
   88.6487      11.3321      7.42116    
   90.0825      11.3003      7.38603    
   91.5395      11.2594      7.35106    
   93.0201      11.2107      7.31626    
   94.5246      11.1571      7.28162    
   96.0535      11.1097      7.24715    
   97.6071      11.0573      7.17081    
   99.1858      10.9660      7.08146    
   100.790      10.8486      6.99321    
   102.420      10.7122      6.90606    
   104.077      10.5721      6.82000    
   105.760      10.4533      6.66635    
   107.471      10.2345      6.45642    
   109.209      9.94351      6.25310    
   110.975      9.61061      6.00472    
   112.770      9.14243      5.71920    
   114.594      8.55879      5.44726    
   116.448      7.88923      5.15714    
   118.331      7.01640      4.83137    
   120.245      5.91495      4.52616    
   122.190      4.55296      4.26457    
   124.166      2.88315      4.03482    
   126.175     0.763467      3.80646    
   128.215     -2.11010      3.55452    
   130.289     -6.48000      3.31927    
   132.397     -16.3328      4.36314    
   134.538     -25.7024      15.0485    
   136.714     -34.6364      41.3611    
   138.925     -9.71490      66.1748    
   141.172      17.1208      57.8027    
   143.456      28.5644      42.0620    
   145.776      26.1723      31.4923    
   148.134      24.3442      27.9775    
   150.530      22.8147      25.5125    
   152.964      22.2303      24.7059    
   155.439      22.3370      23.9248    
   157.953      22.5457      23.1832    
   160.507      22.7928      22.4887    
   163.103      23.0568      21.8747    
   165.742      23.3321      21.2873    
   168.422      23.6035      20.7449    
   171.146      23.8749      20.2226    
   173.915      24.1306      19.7134    
   176.727      24.3501      19.2170    
   179.586      24.5553      18.7763    
   182.491      24.7634      18.3503    
   185.442      24.9633      17.9339    
   188.442      25.1520      17.5269    
   191.489      25.3303      17.1292    
   194.587      25.5182      16.7323    
   197.734      25.6693      16.3019    
   200.932      25.7772      15.8825    
   204.182      25.8526      15.4740    
   207.485      25.8948      15.0759    
   210.840      25.8979      14.6881    
   214.251      25.8144      14.3103    
   217.716      25.7065      14.0807    
   221.237      25.6614      13.8923    
   224.816      25.6414      13.7065    
   228.452      25.6302      13.5231    
   232.147      25.6202      13.3421    
   235.902      25.6061      13.1636    
   239.717      25.5827      12.9875    
   243.595      25.5417      12.8137    
   247.535      25.4560      12.6423    
   251.538      25.3512      12.5737    
   255.607      25.2920      12.5365    
   259.741      25.2671      12.4993    
   263.942      25.2544      12.4622    
   268.211      25.2487      12.4253    
   272.549      25.2454      12.3884    
   276.957      25.2256      12.3588    
   281.437      25.2210      12.3571    
   285.989      25.2324      12.3553    
   290.615      25.2497      12.3535    
   295.315      25.2696      12.3517    
   300.092      25.2888      12.3500    
   304.945      25.3029      12.3482    
   309.878      25.2986      12.3464    
   314.890      25.2656      12.3965    
   319.983      25.2716      12.4887    
   325.158      25.3142      12.5817    
   330.418      25.3746      12.6753    
   335.762      25.4507      12.7696    
   341.192      25.5415      12.8646    
   346.711      25.6489      12.9604    
   352.319      25.7761      13.0493    
   358.017      25.9077      13.1270    
   363.808      26.0461      13.2045    
   369.692      26.1943      13.2825    
   375.672      26.3558      13.3611    
   381.748      26.5368      13.4402    
   387.922      26.7512      13.5078    
   394.197      26.9917      13.5488    
   400.573      27.2348      13.5255    
   407.052      27.4392      13.4768    
   413.635      27.6223      13.4281    
   420.326      27.7934      13.3796    
   427.124      27.9563      13.3313    
   434.032      28.1134      13.2832    
   441.052      28.2665      13.2353    
   448.186      28.4219      13.1859    
   455.435      28.5726      13.1286    
   462.802      28.7173      13.0657    
   470.287      28.8539      13.0000    
   477.894      28.9836      12.9348    
   485.623      29.1086      12.8698    
   493.478      29.2298      12.8051    
   501.459      29.3480      12.7408    
   509.570      29.4645      12.6767    
   517.812      29.5828      12.6113    
   526.187      29.7012      12.5402    
   534.698      29.8158      12.4582    
   543.346      29.9191      12.3710    
   552.134      30.0165      12.2844    
   561.065      30.1084      12.1913    
   570.139      30.1912      12.0953    
   579.361      30.2637      11.9980    
   588.732      30.3280      11.9013    
   598.254      30.3849      11.8053    
   607.930      30.4351      11.7099    
   617.763      30.4795      11.6153    
   627.755      30.5216      11.5208    
   637.908      30.5599      11.4188    
   648.226      30.5890      11.3052    
   658.711      30.5966      11.1846    
   669.365      30.5820      11.0654    
   680.191      30.5477      10.9646    
   691.193      30.5121      10.8780    
   702.372      30.4858      10.7945    
   713.733      30.4568      10.6954    
   725.277      30.4078      10.5862    
   737.008      30.3412      10.4781    
   748.928      30.2594      10.3712    
   761.042      30.1634      10.2652    
   773.351      30.0540      10.1580    
   785.859      29.9281      10.0448    
   798.570      29.7766      9.92691    
   811.486      29.5999      9.81049    
   824.611      29.3979      9.69536    
   837.949      29.1694      9.58149    
   851.502      28.9116      9.46671    
   865.274      28.6204      9.35064    
   879.269      28.2890      9.23366    
   893.491      27.9133      9.11807    
   907.943      27.4882      9.00396    
   922.628      27.0080      8.89133    
   937.551      26.4599      8.77388    
   952.715      25.8295      8.65656    
   968.124      25.0996      8.53960    
   983.783      24.2482      8.42397    
   999.695      23.2445      8.30953    
   1015.86      22.0436      8.19626    
   1032.29      20.5739      8.08056    
   1048.99      18.7214      7.96537    
   1065.96      16.2836      7.85065    
   1083.20      12.8470      7.73760    
   1100.72      7.32983      7.62607    
   1118.52     -5.39855      7.51600    
   1127.40     -60.8489      7.46236    
   1127.60     -60.8139      46.7448    
   1136.61     -3.74857      46.2262    
   1155.00      10.9622      45.1984    
   1173.68      18.1065      44.1936    
   1192.66      22.9318      43.2107    
   1211.95      26.5900      42.2498    
   1231.55      29.5332      41.3103    
   1251.47      31.9878      40.3930    
   1271.72      34.0845      39.4981    
   1292.29      35.9081      38.6253    
   1313.19      37.5131      37.7714    
   1334.43      38.9375      36.9366    
   1356.01      40.2099      36.1206    
   1377.94      41.3509      35.3220    
   1400.23      42.3757      34.5411    
   1422.88      43.2957      33.7777    
   1445.89      44.1185      33.0315    
   1469.28      44.8462      32.3017    
   1480.50      45.1712      31.9613    
   1480.70      45.1755      31.9376    
   1493.04      45.4535      31.6043    
   1517.19      46.0088      30.9697    
   1541.73      46.4885      30.3478    
   1566.67      46.8487      29.7381    
   1592.01      46.9510      29.1409    
   1613.80      43.8244      28.6442    
   1614.00      43.8307      30.7759    
   1617.76      46.4120      30.6755    
   1643.92      48.3734      29.9915    
   1670.51      49.2885      29.3227    
   1697.53      49.9729      28.6688    
   1724.99      50.5175      28.0296    
   1752.89      50.9311      27.4043    
   1781.24      51.1210      26.7929    
   1799.90      49.5256      26.4030    
   1800.10      49.5288      27.5459    
   1810.05      51.3717      27.3432    
   1839.32      52.3119      26.7616    
   1869.07      52.9269      26.1926    
   1899.30      53.4405      25.6365    
   1930.02      53.8945      25.0915    
   1961.24      54.3056      24.5580    
   1992.96      54.6787      24.0358    
   2025.20      55.0321      23.5345    
   2057.95      55.3645      23.0259    
   2091.24      55.6700      22.5261    
   2125.06      55.9525      22.0353    
   2159.43      56.2150      21.5532    
   2194.36      56.4584      21.0798    
   2229.85      56.6848      20.6160    
   2265.92      56.8955      20.1606    
   2302.57      57.0914      19.7144    
   2339.81      57.2734      19.2766    
   2377.66      57.4427      18.8477    
   2416.11      57.5999      18.4269    
   2455.19      57.7455      18.0144    
   2494.90      57.8801      17.6097    
   2535.26      58.0039      17.2131    
   2576.26      58.1180      16.8251    
   2617.93      58.2230      16.4449    
   2660.27      58.3189      16.0723    
   2703.30      58.4065      15.7077    
   2747.03      58.4865      15.3506    
   2791.46      58.5587      15.0003    
   2836.61      58.6233      14.6580    
   2882.49      58.6815      14.3232    
   2929.11      58.7331      13.9948    
   2976.48      58.7781      13.6737    
   3024.63      58.8175      13.3595    
   3073.55      58.8511      13.0517    
   3123.26      58.8789      12.7507    
   3173.78      58.9014      12.4564    
   3225.11      58.9195      12.1688    
   3277.27      58.9325      11.8866    
   3330.28      58.9406      11.6112    
   3384.15      58.9446      11.3417    
   3438.88      58.9442      11.0780    
   3494.50      58.9395      10.8200    
   3551.02      58.9308      10.5678    
   3608.46      58.9181      10.3211    
   3666.82      58.9016      10.0799    
   3726.13      58.8814      9.84401    
   3786.40      58.8575      9.61340    
   3847.64      58.8300      9.38791    
   3909.87      58.7989      9.16739    
   3973.11      58.7643      8.95182    
   4037.38      58.7262      8.74108    
   4102.68      58.6847      8.53495    
   4169.03      58.6395      8.33350    
   4236.46      58.5908      8.13652    
   4304.98      58.5386      7.94408    
   4374.62      58.4827      7.75585    
   4445.37      58.4230      7.57179    
   4517.27      58.3594      7.39196    
   4590.33      58.2920      7.21626    
   4664.58      58.2204      7.04436    
   4740.03      58.1442      6.87623    
   4816.69      58.0634      6.71209    
   4894.60      57.9777      6.55165    
   4973.77      57.8868      6.39478    
   5054.21      57.7903      6.24144    
   5135.96      57.6875      6.09153    
   5219.03      57.5780      5.94493    
   5303.44      57.4610      5.80163    
   5389.22      57.3357      5.66158    
   5476.39      57.2011      5.52484    
   5564.97      57.0562      5.39105    
   5654.98      56.8993      5.26031    
   5746.44      56.7287      5.13247    
   5839.39      56.5419      5.00739    
   5933.83      56.3358      4.88519    
   6029.81      56.1068      4.76602    
   6127.33      55.8496      4.64917    
   6226.44      55.5566      4.53504    
   6327.15      55.2173      4.42351    
   6429.48      54.8153      4.31442    
   6533.48      54.3236      4.20782    
   6639.15      53.6924      4.10352    
   6746.54      52.8128      4.00161    
   6855.65      51.3533      3.90188    
   6966.54      45.8022      3.80449    
   6976.80      35.2494      3.79567    
   6977.00      35.2505      10.9555    
   7079.22      51.0728      10.6501    
   7193.72      52.6410      10.3230    
   7310.07      53.3299      10.0056    
   7428.31      53.5054      9.69811    
   7548.45      52.8957      9.40022    
   7617.00      45.6503      9.23642    
   7617.20      45.6514      12.8525    
   7670.54      53.0633      12.6847    
   7794.61      54.7024      12.3073    
   7920.68      55.3366      11.9407    
   8048.79      54.0591      11.5853    
   8051.90      52.2193      11.5768    
   8052.10      52.2201      13.2566    
   8178.98      56.5824      12.9561    
   8311.26      57.4448      12.6548    
   8445.69      58.0852      12.3585    
   8582.29      58.6108      12.0670    
   8721.11      59.0601      11.7804    
   8862.16      59.4524      11.4988    
   9005.50      59.8000      11.2226    
   9151.16      60.1108      10.9507    
   9299.17      60.3901      10.6844    
   9449.58      60.6431      10.4233    
   9602.42      60.8728      10.1669    
   9757.73      61.0817      9.91573    
   9915.55      61.2724      9.66983    
   10075.9      61.4469      9.42856    
   10238.9      61.6063      9.19224    
   10404.5      61.7523      8.96083    
   10572.8      61.8858      8.73430    
   10743.8      62.0081      8.51260    
   10917.6      62.1200      8.29567    
   11094.2      62.2223      8.08347    
   11273.6      62.3158      7.87595    
   11455.9      62.4010      7.67304    
   11641.2      62.4787      7.47469    
   11829.5      62.5494      7.28082    
   12020.8      62.6134      7.09139    
   12215.3      62.6714      6.90632    
   12412.8      62.7237      6.72555    
   12613.6      62.7706      6.54901    
   12817.6      62.8126      6.37663    
   13025.0      62.8500      6.20834    
   13235.6      62.8830      6.04408    
   13449.7      62.9120      5.88376    
   13667.2      62.9372      5.72732    
   13888.3      62.9588      5.57469    
   14112.9      62.9772      5.42580    
   14341.2      62.9924      5.28057    
   14573.1      63.0047      5.13893    
   14808.9      63.0143      5.00082    
   15048.4      63.0213      4.86616    
   15291.8      63.0260      4.73488    
   15539.1      63.0284      4.60692    
   15790.4      63.0287      4.48220    
   16045.8      63.0271      4.36065    
   16305.4      63.0236      4.24221    
   16569.1      63.0185      4.12680    
   16837.1      63.0117      4.01437    
   17109.4      63.0035      3.90485    
   17386.1      62.9938      3.79817    
   17667.4      62.9829      3.69426    
   17953.1      62.9707      3.59307    
   18243.5      62.9574      3.49453    
   18538.6      62.9430      3.39858    
   18838.4      62.9277      3.30515    
   19143.1      62.9114      3.21420    
   19452.7      62.8943      3.12567    
   19767.4      62.8764      3.03948    
   20087.1      62.8577      2.95559    
   20412.0      62.8383      2.87394    
   20742.1      62.8183      2.79449    
   21077.6      62.7977      2.71716    
   21418.5      62.7765      2.64191    
   21765.0      62.7548      2.56870    
   22117.0      62.7325      2.49746    
   22474.7      62.7098      2.42815    
   22838.2      62.6867      2.36073    
   23207.6      62.6632      2.29513    
   23583.0      62.6392      2.23133    
   23964.4      62.6149      2.16926    
   24352.0      62.5902      2.10889    
   24745.9      62.5652      2.05017    
   25146.2      62.5398      1.99307    
   25552.9      62.5141      1.93753    
   25966.2      62.4881      1.88352    
   26386.1      62.4618      1.83100    
   26812.9      62.4351      1.77992    
   27246.6      62.4081      1.73026    
   27687.3      62.3807      1.68197    
   28135.1      62.3531      1.63502    
   28590.2      62.3251      1.58936    
   29052.6      62.2970      1.54498    
   29522.5      62.2725      1.50183    
   30000.0      62.2257      1.45987    
