 fe, Z=26, (Energy (eV),f1,f2)
   10.0000     -9999.00      1.37852    
   10.1617     -9999.00      1.42961    
   10.3261     -9999.00      1.48259    
   10.4931     -9999.00      1.53754    
   10.6628     -9999.00      1.59453    
   10.8353     -9999.00      1.65362    
   11.0106     -9999.00      1.71491    
   11.1886     -9999.00      1.77847    
   11.3696     -9999.00      1.84438    
   11.5535     -9999.00      1.91274    
   11.7404     -9999.00      1.97402    
   11.9303     -9999.00      2.01044    
   12.1232     -9999.00      2.04752    
   12.3193     -9999.00      2.08529    
   12.5186     -9999.00      2.12375    
   12.7210     -9999.00      2.16292    
   12.9268     -9999.00      2.20282    
   13.1359     -9999.00      2.24345    
   13.3483     -9999.00      2.28484    
   13.5642     -9999.00      2.32698    
   13.7836     -9999.00      2.36990    
   14.0066     -9999.00      2.41362    
   14.2331     -9999.00      2.45814    
   14.4633     -9999.00      2.50348    
   14.6973     -9999.00      2.54966    
   14.9350     -9999.00      2.59669    
   15.1765     -9999.00      2.64458    
   15.4220     -9999.00      2.69337    
   15.6714     -9999.00      2.73188    
   15.9249     -9999.00      2.75688    
   16.1825     -9999.00      2.78211    
   16.4442     -9999.00      2.80756    
   16.7102     -9999.00      2.83325    
   16.9805     -9999.00      2.85918    
   17.2551     -9999.00      2.88534    
   17.5342     -9999.00      2.91174    
   17.8178     -9999.00      2.93838    
   18.1060     -9999.00      2.96261    
   18.3989     -9999.00      2.97951    
   18.6964     -9999.00      2.99650    
   18.9988     -9999.00      3.01359    
   19.3061     -9999.00      3.03078    
   19.6184     -9999.00      3.04806    
   19.9357     -9999.00      3.06544    
   20.2582     -9999.00      3.08293    
   20.5858     -9999.00      3.10051    
   20.9188     -9999.00      3.11819    
   21.2571     -9999.00      3.13597    
   21.6009     -9999.00      3.15386    
   21.9503     -9999.00      3.17184    
   22.3053     -9999.00      3.18993    
   22.6661     -9999.00      3.19901    
   23.0327     -9999.00      3.20529    
   23.4053     -9999.00      3.21159    
   23.7838     -9999.00      3.21789    
   24.1685     -9999.00      3.22421    
   24.5594     -9999.00      3.23054    
   24.9566     -9999.00      3.23689    
   25.3603     -9999.00      3.24324    
   25.7705     -9999.00      3.24961    
   26.1873     -9999.00      3.25599    
   26.6109     -9999.00      3.26239    
   27.0413     -9999.00      3.26879    
   27.4786     -9999.00      3.27521    
   27.9231     -9999.00      3.28164    
   28.3747     -9999.00      3.28184    
   28.8337     -9999.00      3.26361    
   29.3000      4.73140      3.24547    
   29.7739      4.76263      3.22745    
   30.2555      4.78979      3.20951    
   30.7449      4.81343      3.19168    
   31.2421      4.83386      3.17395    
   31.7475      4.85127      3.15632    
   32.2609      4.86580      3.13878    
   32.7827      4.87752      3.12135    
   33.3130      4.88653      3.10401    
   33.8518      4.89324      3.08676    
   34.3993      4.89852      3.06821    
   34.9557      4.89884      3.04783    
   35.5211      4.89474      3.02759    
   36.0956      4.88660      3.00747    
   36.6794      4.87437      2.98750    
   37.2727      4.85791      2.96765    
   37.8755      4.83702      2.94794    
   38.4882      4.81148      2.92835    
   39.1107      4.78106      2.90891    
   39.7432      4.74557      2.88958    
   40.3861      4.70512      2.87039    
   41.0393      4.66135      2.85002    
   41.7031      4.60787      2.82162    
   42.3776      4.54183      2.79349    
   43.0630      4.46363      2.76565    
   43.7595      4.37257      2.73809    
   44.4673      4.26705      2.71079    
   45.1865      4.14492      2.68377    
   45.9174      4.00326      2.65703    
   46.6600      3.83823      2.63054    
   47.4147      3.64451      2.60433    
   48.1816      3.41471      2.57837    
   48.9609      3.13811      2.55267    
   49.7528      2.79878      2.52664    
   50.5576      2.36452      2.49588    
   51.3753      1.77210      2.46550    
   52.2062     0.912549      2.49950    
   53.0506    -0.656558      2.57469    
   53.9087     -3.31836      4.80517    
   54.7806     -2.11636      9.28509    
   55.6667    -0.865987E-01  9.98238    
   56.5670      1.46441      10.4549    
   57.4820      2.56945      10.7076    
   58.4117      3.70844      10.9275    
   59.3564      4.70545      10.6850    
   60.3165      5.49638      10.4478    
   61.2921      6.20435      10.1122    
   62.2834      6.72079      9.71669    
   63.2908      7.10635      9.33663    
   64.3145      7.40227      8.97142    
   65.3547      7.61967      8.62050    
   66.4118      7.75313      8.28332    
   67.4859      7.75552      7.97015    
   68.5775      7.75758      7.86267    
   69.6867      7.81285      7.75663    
   70.8138      7.87693      7.65203    
   71.9591      7.93651      7.54883    
   73.1230      7.98331      7.44703    
   74.3057      8.00539      7.34660    
   75.5076      7.96529      7.28864    
   76.7289      7.97299      7.30616    
   77.9699      8.00949      7.32372    
   79.2310      8.06067      7.34133    
   80.5125      8.12052      7.35898    
   81.8147      8.18632      7.37667    
   83.1380      8.25638      7.39440    
   84.4827      8.32950      7.41218    
   85.8491      8.40471      7.43000    
   87.2377      8.48093      7.44786    
   88.6487      8.55559      7.46624    
   90.0825      8.63299      7.49275    
   91.5395      8.71497      7.51936    
   93.0201      8.80025      7.54607    
   94.5246      8.88793      7.57286    
   96.0535      8.97777      7.59976    
   97.6071      9.06962      7.62675    
   99.1858      9.16341      7.65383    
   100.790      9.25914      7.68101    
   102.420      9.35691      7.70829    
   104.077      9.45696      7.73567    
   105.760      9.56033      7.76314    
   107.471      9.66593      7.78722    
   109.209      9.77152      7.81049    
   110.975      9.87812      7.83383    
   112.770      9.98624      7.85724    
   114.594      10.0963      7.88073    
   116.448      10.2085      7.90428    
   118.331      10.3236      7.92791    
   120.245      10.4422      7.95160    
   122.190      10.5657      7.97537    
   124.166      10.6988      7.99921    
   126.175      10.8449      8.00625    
   128.215      10.9780      7.99853    
   130.289      11.1045      7.99083    
   132.397      11.2280      7.98313    
   134.538      11.3498      7.97544    
   136.714      11.4708      7.96776    
   138.925      11.5917      7.96008    
   141.172      11.7132      7.95241    
   143.456      11.8364      7.94475    
   145.776      11.9635      7.93710    
   148.134      12.1008      7.92106    
   150.530      12.2280      7.89217    
   152.964      12.3494      7.86339    
   155.439      12.4675      7.83471    
   157.953      12.5835      7.80615    
   160.507      12.6981      7.77768    
   163.103      12.8116      7.74932    
   165.742      12.9246      7.72106    
   168.422      13.0373      7.69290    
   171.146      13.1502      7.66485    
   173.915      13.2637      7.63690    
   176.727      13.3785      7.60905    
   179.586      13.4951      7.58130    
   182.491      13.6149      7.55366    
   185.442      13.7397      7.52611    
   188.442      13.8743      7.49867    
   191.489      14.0386      7.46087    
   194.587      14.1827      7.36866    
   197.734      14.3045      7.27760    
   200.932      14.4119      7.18766    
   204.182      14.5099      7.09884    
   207.485      14.6001      7.01111    
   210.840      14.6831      6.92446    
   214.251      14.7592      6.83889    
   217.716      14.8280      6.75437    
   221.237      14.8877      6.67090    
   224.816      14.9288      6.58963    
   228.452      14.9729      6.54414    
   232.147      15.0268      6.49896    
   235.902      15.0868      6.45410    
   239.717      15.1493      6.40954    
   243.595      15.2138      6.36529    
   247.535      15.2799      6.32135    
   251.538      15.3475      6.27771    
   255.607      15.4168      6.23437    
   259.741      15.4881      6.19133    
   263.942      15.5620      6.14859    
   268.211      15.6397      6.10615    
   272.549      15.7233      6.06399    
   276.957      15.8359      6.01084    
   281.437      15.9299      5.92255    
   285.989      16.0035      5.83556    
   290.615      16.0695      5.74984    
   295.315      16.1296      5.66539    
   300.092      16.1850      5.58217    
   304.945      16.2366      5.50018    
   309.878      16.2851      5.41940    
   314.890      16.3312      5.33979    
   319.983      16.3755      5.26136    
   325.158      16.4191      5.18408    
   330.418      16.4632      5.10794    
   335.762      16.5225      5.03291    
   341.192      16.5727      4.92380    
   346.711      16.6036      4.81616    
   352.319      16.6237      4.71086    
   358.017      16.6354      4.60787    
   363.808      16.6397      4.50713    
   369.692      16.6370      4.40859    
   375.672      16.6270      4.31221    
   381.748      16.6026      4.21793    
   387.922      16.5737      4.14490    
   394.197      16.5552      4.07954    
   400.573      16.5454      4.00915    
   407.052      16.5275      3.92917    
   413.635      16.5026      3.85080    
   420.326      16.4725      3.77398    
   427.124      16.4376      3.69870    
   434.032      16.3980      3.62491    
   441.052      16.3537      3.55260    
   448.186      16.3045      3.48174    
   455.435      16.2503      3.41228    
   462.802      16.1908      3.34421    
   470.287      16.1258      3.27750    
   477.894      16.0550      3.21212    
   485.623      15.9780      3.14804    
   493.478      15.8948      3.08503    
   501.459      15.8039      3.02269    
   509.570      15.7048      2.96160    
   517.812      15.5969      2.90175    
   526.187      15.4794      2.84310    
   534.698      15.3514      2.78564    
   543.346      15.2116      2.72935    
   552.134      15.0586      2.67418    
   561.065      14.8907      2.62014    
   570.139      14.7058      2.56719    
   579.361      14.5009      2.51530    
   588.732      14.2719      2.46447    
   598.254      14.0146      2.41999    
   607.930      13.7300      2.37973    
   617.763      13.4118      2.34017    
   627.755      13.0502      2.30104    
   637.908      12.6319      2.25957    
   648.226      12.1369      2.21452    
   658.711      11.5336      2.16757    
   669.365      10.7767      2.12164    
   680.191      9.78537      2.08255    
   691.193      8.39043      2.04854    
   702.372      6.05999      2.01509    
   706.700      4.42734      2.00242    
   706.900      4.29418      2.02012    
   713.733     0.566866      4.43192    
   725.277      1.64962      16.4340    
   737.008      6.85206      16.0756    
   748.928      10.1184      15.7252    
   761.042      11.7939      15.3828    
   773.351      13.0461      15.0480    
   785.859      13.9867      14.7261    
   798.570      14.5897      14.4327    
   811.486      15.1663      14.5066    
   824.611      15.8037      14.5809    
   837.949      16.4896      14.6555    
   851.502      17.2602      14.7305    
   865.274      18.1378      14.5915    
   879.269      18.8722      14.2652    
   893.491      19.4399      13.9465    
   907.943      19.9397      13.6347    
   922.628      20.3797      13.3297    
   937.551      20.7770      13.0418    
   952.715      21.1421      12.7630    
   968.124      21.4803      12.4928    
   983.783      21.7957      12.2280    
   999.695      22.0897      11.9685    
   1015.86      22.3660      11.7140    
   1032.29      22.6253      11.4617    
   1048.99      22.8693      11.2106    
   1065.96      23.0947      10.9604    
   1083.20      23.3021      10.7157    
   1100.72      23.4953      10.4765    
   1118.52      23.6756      10.2426    
   1136.61      23.8442      10.0139    
   1155.00      24.0021      9.79036    
   1173.68      24.1504      9.57181    
   1192.66      24.2900      9.35813    
   1211.95      24.4216      9.14919    
   1231.55      24.5475      8.94492    
   1251.47      24.6669      8.74240    
   1271.72      24.7801      8.54142    
   1292.29      24.8843      8.34135    
   1313.19      24.9792      8.14613    
   1334.43      25.0673      7.95544    
   1356.01      25.1493      7.76913    
   1377.94      25.2257      7.58714    
   1400.23      25.2969      7.40943    
   1422.88      25.3635      7.23595    
   1445.89      25.4263      7.06656    
   1469.28      25.4857      6.90047    
   1493.04      25.5429      6.73728    
   1517.19      25.5954      6.57391    
   1541.73      25.6419      6.41399    
   1566.67      25.6841      6.25803    
   1592.01      25.7225      6.10583    
   1617.76      25.7576      5.95731    
   1643.92      25.7897      5.81239    
   1670.51      25.8193      5.67104    
   1697.53      25.8467      5.53311    
   1724.99      25.8734      5.39847    
   1752.89      25.8979      5.26344    
   1781.24      25.9190      5.13051    
   1810.05      25.9362      4.99990    
   1839.32      25.9503      4.87266    
   1869.07      25.9618      4.74866    
   1899.30      25.9712      4.62785    
   1930.02      25.9787      4.51012    
   1961.24      25.9845      4.39537    
   1992.96      25.9880      4.28350    
   2025.20      25.9918      4.17638    
   2057.95      25.9949      4.06827    
   2091.24      25.9956      3.96272    
   2125.06      25.9945      3.85956    
   2159.43      25.9919      3.75885    
   2194.36      25.9878      3.66043    
   2229.85      25.9825      3.56442    
   2265.92      25.9759      3.47073    
   2302.57      25.9683      3.37928    
   2339.81      25.9596      3.28988    
   2377.66      25.9497      3.20281    
   2416.11      25.9391      3.11785    
   2455.19      25.9275      3.03494    
   2494.90      25.9151      2.95409    
   2535.26      25.9019      2.87525    
   2576.26      25.8880      2.79837    
   2617.93      25.8733      2.72340    
   2660.27      25.8581      2.65034    
   2703.30      25.8422      2.57909    
   2747.03      25.8257      2.50966    
   2791.46      25.8086      2.44201    
   2836.61      25.7911      2.37611    
   2882.49      25.7730      2.31186    
   2929.11      25.7545      2.24928    
   2976.48      25.7356      2.18831    
   3024.63      25.7162      2.12895    
   3073.55      25.6965      2.07110    
   3123.26      25.6764      2.01476    
   3173.78      25.6559      1.95990    
   3225.11      25.6350      1.90650    
   3277.27      25.6138      1.85449    
   3330.28      25.5923      1.80385    
   3384.15      25.5705      1.75456    
   3438.88      25.5484      1.70657    
   3494.50      25.5259      1.65983    
   3551.02      25.5032      1.61438    
   3608.46      25.4801      1.57013    
   3666.82      25.4567      1.52704    
   3726.13      25.4330      1.48515    
   3786.40      25.4090      1.44434    
   3847.64      25.3846      1.40465    
   3909.87      25.3598      1.36603    
   3973.11      25.3347      1.32847    
   4037.38      25.3092      1.29190    
   4102.68      25.2833      1.25636    
   4169.03      25.2569      1.22173    
   4236.46      25.2300      1.18809    
   4304.98      25.2026      1.15533    
   4374.62      25.1747      1.12346    
   4445.37      25.1461      1.09249    
   4517.27      25.1168      1.06239    
   4590.33      25.0869      1.03305    
   4664.58      25.0561      1.00457    
   4740.03      25.0244     0.976873    
   4816.69      24.9918     0.949891    
   4894.60      24.9581     0.923701    
   4973.77      24.9231     0.898161    
   5054.21      24.8868     0.873392    
   5135.96      24.8490     0.849294    
   5219.03      24.8094     0.825838    
   5303.44      24.7679     0.803057    
   5389.22      24.7242     0.780872    
   5476.39      24.6779     0.759346    
   5564.97      24.6287     0.738385    
   5654.98      24.5762     0.718011    
   5746.44      24.5196     0.698203    
   5839.39      24.4584     0.678946    
   5933.83      24.3916     0.660221    
   6029.81      24.3180     0.642017    
   6127.33      24.2361     0.624321    
   6226.44      24.1438     0.607117    
   6327.15      24.0381     0.590390    
   6429.48      23.9147     0.574125    
   6533.48      23.7671     0.558319    
   6639.15      23.5842     0.542948    
   6746.54      23.3462     0.528004    
   6855.65      23.0106     0.513483    
   6966.54      22.4573     0.499359    
   7079.22      20.9327     0.485638    
   7111.90      14.7496     0.481770    
   7112.10      14.7501      3.85592    
   7193.72      22.0180      3.79269    
   7310.07      23.0295      3.70552    
   7428.31      23.5773      3.61951    
   7548.45      23.9580      3.53462    
   7670.54      24.2503      3.45114    
   7794.61      24.4874      3.36893    
   7920.68      24.6860      3.28802    
   8048.79      24.8562      3.20844    
   8178.98      25.0045      3.13021    
   8311.26      25.1352      3.05334    
   8445.69      25.2515      2.97792    
   8582.29      25.3557      2.90374    
   8721.11      25.4495      2.83104    
   8862.16      25.5344      2.75967    
   9005.50      25.6116      2.68982    
   9151.16      25.6818      2.62115    
   9299.17      25.7459      2.55398    
   9449.58      25.8044      2.48817    
   9602.42      25.8581      2.42376    
   9757.73      25.9073      2.36063    
   9915.55      25.9523      2.29898    
   10075.9      25.9938      2.23854    
   10238.9      26.0317      2.17943    
   10404.5      26.0665      2.12163    
   10572.8      26.0984      2.06511    
   10743.8      26.1277      2.00987    
   10917.6      26.1545      1.95589    
   11094.2      26.1790      1.90315    
   11273.6      26.2014      1.85164    
   11455.9      26.2218      1.80133    
   11641.2      26.2403      1.75222    
   11829.5      26.2572      1.70428    
   12020.8      26.2725      1.65749    
   12215.3      26.2862      1.61183    
   12412.8      26.2986      1.56728    
   12613.6      26.3097      1.52383    
   12817.6      26.3196      1.48146    
   13025.0      26.3284      1.44014    
   13235.6      26.3361      1.39985    
   13449.7      26.3429      1.36058    
   13667.2      26.3487      1.32231    
   13888.3      26.3536      1.28501    
   14112.9      26.3578      1.24866    
   14341.2      26.3612      1.21326    
   14573.1      26.3638      1.17877    
   14808.9      26.3659      1.14518    
   15048.4      26.3673      1.11246    
   15291.8      26.3682      1.08061    
   15539.1      26.3685      1.04960    
   15790.4      26.3683      1.01941    
   16045.8      26.3677     0.990019    
   16305.4      26.3667     0.961418    
   16569.1      26.3652     0.933585    
   16837.1      26.3634     0.906501    
   17109.4      26.3613     0.880150    
   17386.1      26.3588     0.854515    
   17667.4      26.3560     0.829578    
   17953.1      26.3530     0.805322    
   18243.5      26.3497     0.781732    
   18538.6      26.3462     0.758791    
   18838.4      26.3425     0.736483    
   19143.1      26.3386     0.714793    
   19452.7      26.3345     0.693706    
   19767.4      26.3303     0.673206    
   20087.1      26.3259     0.653279    
   20412.0      26.3214     0.633910    
   20742.1      26.3168     0.615086    
   21077.6      26.3121     0.596791    
   21418.5      26.3073     0.579014    
   21765.0      26.3024     0.561739    
   22117.0      26.2974     0.544955    
   22474.7      26.2924     0.528649    
   22838.2      26.2873     0.512808    
   23207.6      26.2822     0.497420    
   23583.0      26.2771     0.482472    
   23964.4      26.2719     0.467954    
   24352.0      26.2667     0.453854    
   24745.9      26.2615     0.440160    
   25146.2      26.2563     0.426862    
   25552.9      26.2511     0.413949    
   25966.2      26.2458     0.401411    
   26386.1      26.2407     0.389237    
   26812.9      26.2355     0.377418    
   27246.6      26.2303     0.365944    
   27687.3      26.2252     0.354805    
   28135.1      26.2201     0.343992    
   28590.2      26.2150     0.333497    
   29052.6      26.2099     0.323310    
   29522.5      26.2049     0.313422    
   30000.0      26.1999     0.303827    
