 ga, Z=31, (Energy (eV),f1,f2)
   10.0000     -9999.00      2.98527    
   10.1617     -9999.00      2.98141    
   10.3261     -9999.00      2.97756    
   10.4931     -9999.00      2.97370    
   10.6628     -9999.00      2.96986    
   10.8353     -9999.00      2.96602    
   11.0106     -9999.00      2.95695    
   11.1886     -9999.00      2.90859    
   11.3696     -9999.00      2.86103    
   11.5535     -9999.00      2.81425    
   11.7404     -9999.00      2.76823    
   11.9303     -9999.00      2.66636    
   12.1232     -9999.00      2.55394    
   12.3193     -9999.00      2.44626    
   12.5186     -9999.00      2.34311    
   12.7210     -9999.00      2.24432    
   12.9268     -9999.00      2.14969    
   13.1359     -9999.00      2.02163    
   13.3483     -9999.00      1.89458    
   13.5642     -9999.00      1.70752    
   13.7836     -9999.00      1.44713    
   14.0066     -9999.00      1.24110    
   14.2331     -9999.00      1.07107    
   14.4633     -9999.00     0.920747    
   14.6973     -9999.00     0.773401    
   14.9350     -9999.00     0.650876    
   15.1765     -9999.00     0.599352    
   15.4220     -9999.00     0.551909    
   15.6714     -9999.00     0.508220    
   15.9249     -9999.00     0.472778    
   16.1825     -9999.00     0.439966    
   16.4442     -9999.00     0.433950    
   16.7102     -9999.00     0.432236    
   16.9805     -9999.00     0.430552    
   17.2551     -9999.00     0.442783    
   17.5342     -9999.00     0.455362    
   17.8178     -9999.00     0.468298    
   18.1060     -9999.00     0.488631    
   18.3989     -9999.00     0.535543    
   18.6964     -9999.00     0.586959    
   18.9988     -9999.00     0.671684    
   19.3061     -9999.00     0.792094    
   19.6184     -9999.00     0.911933    
   19.9357     -9999.00      1.00319    
   20.2582     -9999.00      1.10359    
   20.5858     -9999.00      1.18802    
   20.9188     -9999.00      1.25195    
   21.2571     -9999.00      1.31932    
   21.6009     -9999.00      1.34907    
   21.9503     -9999.00      1.35917    
   22.3053     -9999.00      1.36934    
   22.6661     -9999.00      1.37959    
   23.0327     -9999.00      1.38992    
   23.4053     -9999.00      1.38942    
   23.7838     -9999.00      1.38002    
   24.1685     -9999.00      1.37069    
   24.5594     -9999.00      1.36143    
   24.9566     -9999.00      1.36635    
   25.3603     -9999.00      1.39605    
   25.7705     -9999.00      1.42639    
   26.1873     -9999.00      1.45740    
   26.6109     -9999.00      1.48908    
   27.0413     -9999.00      1.52145    
   27.4786     -9999.00      1.56001    
   27.9231     -9999.00      1.61325    
   28.3747     -9999.00      1.66830    
   28.8337     -9999.00      1.72524    
   29.3000      1.32710      1.78411    
   29.7739      1.29434      1.84500    
   30.2555      1.26276      1.90796    
   30.7449      1.23223      1.97307    
   31.2421      1.20263      2.04041    
   31.7475      1.17370      2.11039    
   32.2609      1.14626      2.18330    
   32.7827      1.12028      2.25873    
   33.3130      1.09579      2.33677    
   33.8518      1.07289      2.41750    
   34.3993      1.05177      2.50102    
   34.9557      1.03270      2.58742    
   35.5211      1.01600      2.67682    
   36.0956      1.00218      2.76930    
   36.6794     0.991934      2.86497    
   37.2727     0.987219      2.96395    
   37.8755     0.992342      3.06635    
   38.4882      1.00331      3.15305    
   39.1107      1.00729      3.23858    
   39.7432      1.00928      3.32644    
   40.3861      1.01098      3.41667    
   41.0393      1.01317      3.50936    
   41.7031      1.01640      3.60456    
   42.3776      1.02117      3.70234    
   43.0630      1.02796      3.80277    
   43.7595      1.03740      3.90593    
   44.4673      1.05032      4.01189    
   45.1865      1.06945      4.12072    
   45.9174      1.10145      4.22650    
   46.6600      1.12842      4.31941    
   47.4147      1.15058      4.41435    
   48.1816      1.17169      4.51138    
   48.9609      1.19271      4.61054    
   49.7528      1.21422      4.71189    
   50.5576      1.23663      4.81545    
   51.3753      1.26035      4.92130    
   52.2062      1.28574      5.02947    
   53.0506      1.31348      5.14003    
   53.9087      1.34493      5.25301    
   54.7806      1.37899      5.36368    
   55.6667      1.41287      5.47581    
   56.5670      1.44803      5.59028    
   57.4820      1.48515      5.70715    
   58.4117      1.52477      5.82646    
   59.3564      1.56740      5.94826    
   60.3165      1.61373      6.07261    
   61.2921      1.66466      6.19957    
   62.2834      1.72239      6.32917    
   63.2908      1.79299      6.46148    
   64.3145      1.87125      6.57308    
   65.3547      1.94010      6.68044    
   66.4118      2.00598      6.78956    
   67.4859      2.07133      6.90045    
   68.5775      2.13739      7.01316    
   69.6867      2.20506      7.12770    
   70.8138      2.27544      7.24412    
   71.9591      2.35039      7.36243    
   73.1230      2.43607      7.48088    
   74.3057      2.52023      7.57994    
   75.5076      2.59758      7.68030    
   76.7289      2.67119      7.78200    
   77.9699      2.74299      7.88504    
   79.2310      2.81326      7.98945    
   80.5125      2.88199      8.09524    
   81.8147      2.94853      8.20243    
   83.1380      3.00986      8.31104    
   84.4827      3.06677      8.43420    
   85.8491      3.13203      8.56433    
   87.2377      3.20293      8.69646    
   88.6487      3.27700      8.83063    
   90.0825      3.35367      8.96688    
   91.5395      3.43237      9.10522    
   93.0201      3.51169      9.24571    
   94.5246      3.59012      9.39145    
   96.0535      3.66777      9.54948    
   97.6071      3.75804      9.71719    
   99.1858      3.85869      9.88785    
   100.790      3.96758      10.0615    
   102.420      4.08488      10.2382    
   104.077      4.21120      10.4180    
   105.760      4.34745      10.6010    
   107.471      4.49520      10.7871    
   109.209      4.65675      10.9766    
   110.975      4.83802      11.1694    
   112.770      5.06362      11.3655    
   114.594      5.29532      11.4855    
   116.448      5.50090      11.6006    
   118.331      5.69762      11.7168    
   120.245      5.89150      11.8342    
   122.190      6.08532      11.9527    
   124.166      6.28088      12.0725    
   126.175      6.47967      12.1934    
   128.215      6.68306      12.3156    
   130.289      6.89260      12.4390    
   132.397      7.11019      12.5636    
   134.538      7.33864      12.6894    
   136.714      7.58301      12.8166    
   138.925      7.86035      12.9450    
   141.172      8.17319      13.0064    
   143.456      8.44711      13.0318    
   145.776      8.69366      13.0573    
   148.134      8.93038      13.0828    
   150.530      9.16028      13.1084    
   152.964      9.38539      13.1340    
   155.439      9.60708      13.1597    
   157.953      9.82645      13.1854    
   160.507      10.0444      13.2112    
   163.103      10.2616      13.2370    
   165.742      10.4790      13.2629    
   168.422      10.6974      13.2888    
   171.146      10.9179      13.3148    
   173.915      11.1420      13.3408    
   176.727      11.3732      13.3669    
   179.586      11.6249      13.3872    
   182.491      11.8660      13.3696    
   185.442      12.0934      13.3520    
   188.442      12.3126      13.3345    
   191.489      12.5271      13.3170    
   194.587      12.7383      13.2995    
   197.734      12.9470      13.2821    
   200.932      13.1537      13.2646    
   204.182      13.3592      13.2472    
   207.485      13.5637      13.2298    
   210.840      13.7677      13.2124    
   214.251      13.9716      13.1951    
   217.716      14.1758      13.1777    
   221.237      14.3808      13.1604    
   224.816      14.5871      13.1431    
   228.452      14.7952      13.1259    
   232.147      15.0059      13.1087    
   235.902      15.2202      13.0914    
   239.717      15.4398      13.0742    
   243.595      15.6675      13.0571    
   247.535      15.9120      13.0399    
   251.538      16.1840      12.9860    
   255.607      16.4295      12.9000    
   259.741      16.6519      12.8147    
   263.942      16.8658      12.7299    
   268.211      17.0737      12.6457    
   272.549      17.2771      12.5620    
   276.957      17.4775      12.4789    
   281.437      17.6757      12.3963    
   285.989      17.8730      12.3143    
   290.615      18.0706      12.2328    
   295.315      18.2699      12.1518    
   300.092      18.4732      12.0714    
   304.945      18.6851      11.9916    
   309.878      18.9226      11.9122    
   314.890      19.1684      11.7685    
   319.983      19.3807      11.6058    
   325.158      19.5654      11.4453    
   330.418      19.7368      11.2870    
   335.762      19.8977      11.1310    
   341.192      20.0500      10.9770    
   346.711      20.1949      10.8253    
   352.319      20.3335      10.6756    
   358.017      20.4666      10.5280    
   363.808      20.5950      10.3824    
   369.692      20.7193      10.2388    
   375.672      20.8404      10.0972    
   381.748      20.9593      9.95761    
   387.922      21.0771      9.81992    
   394.197      21.2069      9.68322    
   400.573      21.3269      9.52024    
   407.052      21.4304      9.35999    
   413.635      21.5248      9.20246    
   420.326      21.6123      9.04756    
   427.124      21.6937      8.89528    
   434.032      21.7699      8.74556    
   441.052      21.8413      8.59835    
   448.186      21.9084      8.45363    
   455.435      21.9714      8.31134    
   462.802      22.0307      8.17145    
   470.287      22.0867      8.03391    
   477.894      22.1395      7.89869    
   485.623      22.1895      7.76574    
   493.478      22.2370      7.63503    
   501.459      22.2824      7.50653    
   509.570      22.3264      7.38018    
   517.812      22.3696      7.25597    
   526.187      22.4216      7.13384    
   534.698      22.4676      6.99252    
   543.346      22.5005      6.85265    
   552.134      22.5260      6.71559    
   561.065      22.5456      6.58127    
   570.139      22.5604      6.44963    
   579.361      22.5708      6.32062    
   588.732      22.5771      6.19420    
   598.254      22.5798      6.07031    
   607.930      22.5792      5.94889    
   617.763      22.5755      5.82990    
   627.755      22.5693      5.71330    
   637.908      22.5611      5.59902    
   648.226      22.5518      5.48703    
   658.711      22.5438      5.37728    
   669.365      22.5459      5.26972    
   680.191      22.5496      5.13025    
   691.193      22.5304      4.97901    
   702.372      22.4890      4.83223    
   713.733      22.4349      4.68978    
   725.277      22.3697      4.55152    
   737.008      22.2939      4.41734    
   748.928      22.2079      4.28711    
   761.042      22.1117      4.16073    
   773.351      22.0047      4.03807    
   785.859      21.8861      3.91903    
   798.570      21.7541      3.80350    
   811.486      21.6009      3.69137    
   824.611      21.4381      3.60783    
   837.949      21.2746      3.53097    
   851.502      21.1073      3.45531    
   865.274      20.9301      3.38059    
   879.269      20.7394      3.30688    
   893.491      20.5327      3.23494    
   907.943      20.3074      3.16450    
   922.628      20.0595      3.09553    
   937.551      19.7850      3.02848    
   952.715      19.4782      2.96292    
   968.124      19.1317      2.89882    
   983.783      18.7352      2.83615    
   999.695      18.2744      2.77532    
   1015.86      17.7277      2.71630    
   1032.29      17.0656      2.66264    
   1048.99      16.2329      2.60963    
   1065.96      15.1233      2.55721    
   1083.20      13.4922      2.50580    
   1100.72      10.5124      2.45541    
   1116.60     -10.6725      2.41128    
   1116.80     -10.6678      15.6268    
   1118.52      1.56871      15.6115    
   1136.61      11.7921      15.4531    
   1155.00      14.6652      15.2962    
   1173.68      16.4368      15.1410    
   1192.66      17.7288      14.9873    
   1211.95      18.7442      14.8352    
   1231.55      19.5700      14.6846    
   1251.47      20.2418      14.5368    
   1271.72      20.7413      14.3906    
   1292.29      20.7723      14.2458    
   1298.90      18.7899      14.2001    
   1299.10      18.8011      15.8852    
   1313.19      21.9927      15.6365    
   1334.43      23.1209      15.2738    
   1356.01      23.9234      14.9194    
   1377.94      24.5811      14.5734    
   1400.23      25.1467      14.2353    
   1422.88      25.6448      13.9051    
   1445.89      26.0897      13.5824    
   1469.28      26.4909      13.2674    
   1493.04      26.8552      12.9599    
   1517.19      27.1881      12.6606    
   1541.73      27.4943      12.3682    
   1566.67      27.7766      12.0826    
   1592.01      28.0376      11.8036    
   1617.76      28.2797      11.5311    
   1643.92      28.5048      11.2649    
   1670.51      28.7148      11.0048    
   1697.53      28.9117      10.7507    
   1724.99      29.0990      10.5025    
   1752.89      29.2746      10.2521    
   1781.24      29.4364      10.0052    
   1810.05      29.5842      9.76228    
   1839.32      29.7201      9.52519    
   1869.07      29.8457      9.29382    
   1899.30      29.9619      9.06803    
   1930.02      30.0697      8.84787    
   1961.24      30.1700      8.63307    
   1992.96      30.2620      8.42343    
   2025.20      30.3509      8.22260    
   2057.95      30.4352      8.01944    
   2091.24      30.5116      7.82020    
   2125.06      30.5812      7.62565    
   2159.43      30.6452      7.43531    
   2194.36      30.7036      7.24887    
   2229.85      30.7570      7.06688    
   2265.92      30.8057      6.88880    
   2302.57      30.8499      6.71491    
   2339.81      30.8900      6.54485    
   2377.66      30.9261      6.37861    
   2416.11      30.9584      6.21644    
   2455.19      30.9873      6.05785    
   2494.90      31.0130      5.90315    
   2535.26      31.0356      5.75194    
   2576.26      31.0552      5.60422    
   2617.93      31.0720      5.46015    
   2660.27      31.0864      5.31950    
   2703.30      31.0983      5.18207    
   2747.03      31.1077      5.04796    
   2791.46      31.1152      4.91733    
   2836.61      31.1205      4.78938    
   2882.49      31.1238      4.66502    
   2929.11      31.1255      4.54352    
   2976.48      31.1254      4.42500    
   3024.63      31.1237      4.30940    
   3073.55      31.1205      4.19667    
   3123.26      31.1160      4.08670    
   3173.78      31.1101      3.97946    
   3225.11      31.1029      3.87493    
   3277.27      31.0946      3.77296    
   3330.28      31.0852      3.67355    
   3384.15      31.0748      3.57666    
   3438.88      31.0634      3.48218    
   3494.50      31.0512      3.39009    
   3551.02      31.0380      3.30032    
   3608.46      31.0241      3.21283    
   3666.82      31.0094      3.12755    
   3726.13      30.9941      3.04450    
   3786.40      30.9781      2.96347    
   3847.64      30.9614      2.88455    
   3909.87      30.9442      2.80767    
   3973.11      30.9265      2.73275    
   4037.38      30.9083      2.65973    
   4102.68      30.8896      2.58859    
   4169.03      30.8704      2.51925    
   4236.46      30.8508      2.45171    
   4304.98      30.8309      2.38597    
   4374.62      30.8106      2.32185    
   4445.37      30.7898      2.25940    
   4517.27      30.7688      2.19861    
   4590.33      30.7475      2.13936    
   4664.58      30.7258      2.08162    
   4740.03      30.7038      2.02540    
   4816.69      30.6815      1.97063    
   4894.60      30.6590      1.91730    
   4973.77      30.6362      1.86534    
   5054.21      30.6130      1.81472    
   5135.96      30.5896      1.76543    
   5219.03      30.5660      1.71743    
   5303.44      30.5420      1.67060    
   5389.22      30.5177      1.62508    
   5476.39      30.4932      1.58067    
   5564.97      30.4683      1.53750    
   5654.98      30.4431      1.49538    
   5746.44      30.4175      1.45443    
   5839.39      30.3916      1.41448    
   5933.83      30.3652      1.37561    
   6029.81      30.3385      1.33772    
   6127.33      30.3113      1.30087    
   6226.44      30.2836      1.26495    
   6327.15      30.2554      1.22995    
   6429.48      30.2266      1.19587    
   6533.48      30.1972      1.16263    
   6639.15      30.1670      1.13029    
   6746.54      30.1361      1.09881    
   6855.65      30.1044      1.06813    
   6966.54      30.0717      1.03825    
   7079.22      30.0380      1.00914    
   7193.72      30.0031     0.980786    
   7310.07      29.9670     0.953177    
   7428.31      29.9294     0.926276    
   7548.45      29.8902     0.900071    
   7670.54      29.8492     0.874545    
   7794.61      29.8061     0.849687    
   7920.68      29.7606     0.825458    
   8048.79      29.7124     0.801857    
   8178.98      29.6611     0.778864    
   8311.26      29.6061     0.756468    
   8445.69      29.5468     0.734664    
   8582.29      29.4824     0.713390    
   8721.11      29.4118     0.692675    
   8862.16      29.3338     0.672497    
   9005.50      29.2465     0.652833    
   9151.16      29.1474     0.633681    
   9299.17      29.0331     0.615009    
   9449.58      28.8982     0.596807    
   9602.42      28.7342     0.579077    
   9757.73      28.5268     0.561816    
   9915.55      28.2473     0.544992    
   10075.9      27.8273     0.528583    
   10238.9      27.0132     0.512592    
   10367.0      19.4428     0.500533    
   10367.2      19.4432      3.85480    
   10404.5      25.8007      3.83433    
   10572.8      27.6942      3.74426    
   10743.8      28.3901      3.65556    
   10917.6      28.8326      3.56828    
   11094.2      29.1586      3.48242    
   11273.6      29.4164      3.39800    
   11455.9      29.6290      3.31505    
   11641.2      29.8091      3.23357    
   11829.5      29.9646      3.15356    
   12020.8      30.1007      3.07503    
   12215.3      30.2210      2.99799    
   12412.8      30.3283      2.92244    
   12613.6      30.4245      2.84837    
   12817.6      30.5113      2.77577    
   13025.0      30.5898      2.70465    
   13235.6      30.6611      2.63499    
   13449.7      30.7259      2.56679    
   13667.2      30.7851      2.50002    
   13888.3      30.8391      2.43470    
   14112.9      30.8884      2.37078    
   14341.2      30.9336      2.30828    
   14573.1      30.9750      2.24716    
   14808.9      31.0128      2.18741    
   15048.4      31.0475      2.12902    
   15291.8      31.0792      2.07196    
   15539.1      31.1082      2.01623    
   15790.4      31.1346      1.96179    
   16045.8      31.1588      1.90863    
   16305.4      31.1809      1.85674    
   16569.1      31.2009      1.80608    
   16837.1      31.2191      1.75665    
   17109.4      31.2356      1.70841    
   17386.1      31.2505      1.66136    
   17667.4      31.2639      1.61546    
   17953.1      31.2759      1.57069    
   18243.5      31.2866      1.52704    
   18538.6      31.2961      1.48449    
   18838.4      31.3045      1.44301    
   19143.1      31.3119      1.40258    
   19452.7      31.3182      1.36318    
   19767.4      31.3237      1.32480    
   20087.1      31.3283      1.28740    
   20412.0      31.3321      1.25096    
   20742.1      31.3352      1.21548    
   21077.6      31.3376      1.18092    
   21418.5      31.3393      1.14727    
   21765.0      31.3404      1.11451    
   22117.0      31.3410      1.08262    
   22474.7      31.3411      1.05157    
   22838.2      31.3407      1.02135    
   23207.6      31.3398     0.991945    
   23583.0      31.3385     0.963326    
   23964.4      31.3368     0.935481    
   24352.0      31.3348     0.908389    
   24745.9      31.3324     0.882035    
   25146.2      31.3297     0.856398    
   25552.9      31.3268     0.831463    
   25966.2      31.3236     0.807212    
   26386.1      31.3201     0.783629    
   26812.9      31.3164     0.760696    
   27246.6      31.3126     0.738399    
   27687.3      31.3085     0.716721    
   28135.1      31.3043     0.695645    
   28590.2      31.3000     0.675159    
   29052.6      31.2956     0.655246    
   29522.5      31.2930     0.635891    
   30000.0      31.2806     0.617081    
