 hf, Z=72, (Energy (eV),f1,f2)
   10.0000     -9999.00      2.62338    
   10.1617     -9999.00      2.71485    
   10.3261     -9999.00      2.80951    
   10.4931     -9999.00      2.90326    
   10.6628     -9999.00      2.98247    
   10.8353     -9999.00      3.06384    
   11.0106     -9999.00      3.14744    
   11.1886     -9999.00      3.21346    
   11.3696     -9999.00      3.27509    
   11.5535     -9999.00      3.33789    
   11.7404     -9999.00      3.40189    
   11.9303     -9999.00      3.44372    
   12.1232     -9999.00      3.48479    
   12.3193     -9999.00      3.52634    
   12.5186     -9999.00      3.56167    
   12.7210     -9999.00      3.59271    
   12.9268     -9999.00      3.62402    
   13.1359     -9999.00      3.65560    
   13.3483     -9999.00      3.68534    
   13.5642     -9999.00      3.66296    
   13.7836     -9999.00      3.64071    
   14.0066     -9999.00      3.61861    
   14.2331     -9999.00      3.59964    
   14.4633     -9999.00      3.58379    
   14.6973     -9999.00      3.56801    
   14.9350     -9999.00      3.55230    
   15.1765     -9999.00      3.52965    
   15.4220     -9999.00      3.49460    
   15.6714     -9999.00      3.45989    
   15.9249     -9999.00      3.42552    
   16.1825     -9999.00      3.39150    
   16.4442     -9999.00      3.34535    
   16.7102     -9999.00      3.29249    
   16.9805     -9999.00      3.24047    
   17.2551     -9999.00      3.18926    
   17.5342     -9999.00      3.13887    
   17.8178     -9999.00      3.08551    
   18.1060     -9999.00      3.03194    
   18.3989     -9999.00      2.97930    
   18.6964     -9999.00      2.92757    
   18.9988     -9999.00      2.87674    
   19.3061     -9999.00      2.82679    
   19.6184     -9999.00      2.78143    
   19.9357     -9999.00      2.73922    
   20.2582     -9999.00      2.69766    
   20.5858     -9999.00      2.65672    
   20.9188     -9999.00      2.61641    
   21.2571     -9999.00      2.57671    
   21.6009     -9999.00      2.54242    
   21.9503     -9999.00      2.51547    
   22.3053     -9999.00      2.48881    
   22.6661     -9999.00      2.46243    
   23.0327     -9999.00      2.43633    
   23.4053     -9999.00      2.41051    
   23.7838     -9999.00      2.37896    
   24.1685     -9999.00      2.34635    
   24.5594     -9999.00      2.31419    
   24.9566     -9999.00      2.28247    
   25.3603     -9999.00      2.25223    
   25.7705     -9999.00      2.22355    
   26.1873     -9999.00      2.19523    
   26.6109     -9999.00      2.17072    
   27.0413     -9999.00      2.17899    
   27.4786     -9999.00      2.18728    
   27.9231     -9999.00      2.19560    
   28.3747     -9999.00      2.25787    
   28.8337     -9999.00      2.32848    
   29.3000     0.444621      2.40129    
   29.7739     0.136828      2.48223    
   30.2555    -0.175772      2.62642    
   30.7449    -0.489729      2.77897    
   31.2421    -0.830563      2.94039    
   31.7475     -1.20335      3.13207    
   32.2609     -1.61428      3.34849    
   32.7827     -2.15398      3.61110    
   33.3130     -2.66961      4.11070    
   33.8518     -3.11582      4.67942    
   34.3993     -3.52368      5.32683    
   34.9557     -3.88103      6.06380    
   35.5211     -4.15032      6.90274    
   36.0956     -4.33237      7.79922    
   36.6794     -4.38125      8.80157    
   37.2727     -4.20669      9.83051    
   37.8755     -3.95876      10.7254    
   38.4882     -3.54368      11.7018    
   39.1107     -3.07773      12.4003    
   39.7432     -2.63696      13.1330    
   40.3861     -2.12652      13.9090    
   41.0393     -1.42390      14.6792    
   41.7031    -0.705816      15.1893    
   42.3776    -0.307145E-01  15.7172    
   43.0630     0.756410      16.2633    
   43.7595      1.67962      16.6980    
   44.4673      2.55865      16.8896    
   45.1865      3.38604      17.0834    
   45.9174      4.28753      17.1928    
   46.6600      5.12897      17.1213    
   47.4147      5.84506      17.0502    
   48.1816      6.53590      16.9793    
   48.9609      7.32181      16.9088    
   49.7528      8.09054      16.6215    
   50.5576      8.69181      16.2898    
   51.3753      9.22398      15.9647    
   52.2062      9.72145      15.6432    
   53.0506      10.1736      15.2898    
   53.9087      10.5636      14.9443    
   54.7806      10.9189      14.6067    
   55.6667      11.2450      14.2767    
   56.5670      11.5490      13.9542    
   57.4820      11.8398      13.6390    
   58.4117      12.1419      13.3308    
   59.3564      12.4529      12.9371    
   60.3165      12.6828      12.4922    
   61.2921      12.8271      12.0625    
   62.2834      12.9247      11.6477    
   63.2908      12.9781      11.2471    
   64.3145      12.9888      10.8603    
   65.3547      12.9397      10.4868    
   66.4118      12.8262      10.1476    
   67.4859      12.6986      9.94532    
   68.5775      12.6164      9.74703    
   69.6867      12.5379      9.55270    
   70.8138      12.4526      9.36225    
   71.9591      12.3530      9.17558    
   73.1230      12.2320      8.99264    
   74.3057      12.0512      8.81335    
   75.5076      11.8132      8.69542    
   76.7289      11.6039      8.72200    
   77.9699      11.4632      8.74866    
   79.2310      11.3477      8.77540    
   80.5125      11.2453      8.80223    
   81.8147      11.1478      8.82913    
   83.1380      11.0428      8.85611    
   84.4827      10.9246      8.92483    
   85.8491      10.8390      9.01283    
   87.2377      10.7717      9.10170    
   88.6487      10.7137      9.19145    
   90.0825      10.6579      9.28207    
   91.5395      10.6014      9.37946    
   93.0201      10.5539      9.50007    
   94.5246      10.5225      9.62221    
   96.0535      10.5006      9.74594    
   97.6071      10.4861      9.87125    
   99.1858      10.4778      9.99817    
   100.790      10.4749      10.1267    
   102.420      10.4764      10.2569    
   104.077      10.4817      10.3888    
   105.760      10.4898      10.5224    
   107.471      10.4989      10.6577    
   109.209      10.5051      10.7988    
   110.975      10.5172      10.9554    
   112.770      10.5406      11.1143    
   114.594      10.5705      11.2755    
   116.448      10.6061      11.4390    
   118.331      10.6469      11.6049    
   120.245      10.6928      11.7732    
   122.190      10.7435      11.9439    
   124.166      10.7991      12.1171    
   126.175      10.8595      12.2929    
   128.215      10.9248      12.4711    
   130.289      10.9950      12.6520    
   132.397      11.0703      12.8355    
   134.538      11.1511      13.0216    
   136.714      11.2388      13.2105    
   138.925      11.3345      13.4010    
   141.172      11.4345      13.5850    
   143.456      11.5352      13.7715    
   145.776      11.6390      13.9605    
   148.134      11.7465      14.1522    
   150.530      11.8582      14.3465    
   152.964      11.9744      14.5434    
   155.439      12.0953      14.7431    
   157.953      12.2213      14.9455    
   160.507      12.3531      15.1506    
   163.103      12.4911      15.3576    
   165.742      12.6340      15.5667    
   168.422      12.7829      15.7788    
   171.146      12.9384      15.9937    
   173.915      13.1012      16.2115    
   176.727      13.2722      16.4323    
   179.586      13.4527      16.6562    
   182.491      13.6460      16.8830    
   185.442      13.8585      17.1130    
   188.442      14.0881      17.3137    
   191.489      14.3058      17.5074    
   194.587      14.5229      17.7034    
   197.734      14.7430      17.9015    
   200.932      14.9682      18.1018    
   204.182      15.2004      18.3044    
   207.485      15.4420      18.5093    
   210.840      15.6977      18.7164    
   214.251      15.9811      18.9126    
   217.716      16.2564      19.0757    
   221.237      16.5231      19.2403    
   224.816      16.7883      19.4063    
   228.452      17.0555      19.5738    
   232.147      17.3265      19.7427    
   235.902      17.6030      19.9130    
   239.717      17.8867      20.0848    
   243.595      18.1821      20.2581    
   247.535      18.5011      20.4246    
   251.538      18.8152      20.5652    
   255.607      19.1240      20.7067    
   259.741      19.4351      20.8493    
   263.942      19.7514      20.9928    
   268.211      20.0754      21.1373    
   272.549      20.4101      21.2828    
   276.957      20.7600      21.4293    
   281.437      21.1338      21.5768    
   285.989      21.5626      21.7254    
   290.615      22.0191      21.7478    
   295.315      22.4143      21.7390    
   300.092      22.7696      21.7302    
   304.945      23.1066      21.7213    
   309.878      23.4290      21.7125    
   314.890      23.7388      21.7037    
   319.983      24.0361      21.6948    
   325.158      24.3152      21.6860    
   330.418      24.5872      21.7043    
   335.762      24.8654      21.7265    
   341.192      25.1473      21.7486    
   346.711      25.4291      21.7708    
   352.319      25.7106      21.7930    
   358.017      25.9914      21.8152    
   363.808      26.2713      21.8374    
   369.692      26.5492      21.8597    
   375.672      26.8250      21.8863    
   381.748      27.1038      21.9158    
   387.922      27.3856      21.9454    
   394.197      27.6690      21.9750    
   400.573      27.9542      22.0047    
   407.052      28.2410      22.0344    
   413.635      28.5300      22.0652    
   420.326      28.8223      22.0965    
   427.124      29.1185      22.1278    
   434.032      29.4190      22.1591    
   441.052      29.7252      22.1905    
   448.186      30.0389      22.2219    
   455.435      30.3750      22.2534    
   462.802      30.7244      22.2492    
   470.287      31.0507      22.2209    
   477.894      31.3621      22.1925    
   485.623      31.6644      22.1643    
   493.478      31.9585      22.1360    
   501.459      32.2424      22.1078    
   509.570      32.5006      22.0796    
   517.812      32.7595      22.1109    
   526.187      33.0463      22.1548    
   534.698      33.3598      22.1987    
   543.346      33.6922      22.2428    
   552.134      34.0461      22.2870    
   561.065      34.4258      22.3312    
   570.139      34.8928      22.3444    
   579.361      35.3327      22.2563    
   588.732      35.7209      22.1686    
   598.254      36.1021      22.0811    
   607.930      36.4832      21.9941    
   617.763      36.8676      21.9073    
   627.755      37.3257      21.8165    
   637.908      37.7646      21.6054    
   648.226      38.1403      21.3754    
   658.711      38.4779      21.1340    
   669.365      38.7649      20.8953    
   680.191      39.0275      20.6906    
   691.193      39.3011      20.5117    
   702.372      39.5959      20.3357    
   713.733      39.9013      20.1177    
   725.277      40.1795      19.8723    
   737.008      40.4248      19.6297    
   748.928      40.6544      19.3900    
   761.042      40.8715      19.1529    
   773.351      41.0781      18.9172    
   785.859      41.2741      18.6793    
   798.570      41.4567      18.4402    
   811.486      41.6257      18.2041    
   824.611      41.7841      17.9709    
   837.949      41.9338      17.7407    
   851.502      42.0748      17.5112    
   865.274      42.2063      17.2825    
   879.269      42.3278      17.0547    
   893.491      42.4394      16.8298    
   907.943      42.5428      16.6078    
   922.628      42.6458      16.3886    
   937.551      42.7408      16.1574    
   952.715      42.8183      15.9254    
   968.124      42.8831      15.6933    
   983.783      42.9358      15.4646    
   999.695      42.9783      15.2369    
   1015.86      43.0169      15.0102    
   1032.29      43.0425      14.7673    
   1048.99      43.0423      14.5251    
   1065.96      43.0237      14.2837    
   1083.20      42.9855      14.0463    
   1100.72      42.9294      13.8125    
   1118.52      42.8552      13.5824    
   1136.61      42.7623      13.3560    
   1155.00      42.6502      13.1332    
   1173.68      42.5177      12.9140    
   1192.66      42.3636      12.6982    
   1211.95      42.1863      12.4860    
   1231.55      41.9839      12.2773    
   1251.47      41.7541      12.0718    
   1271.72      41.4939      11.8698    
   1292.29      41.2003      11.6715    
   1313.19      40.8694      11.4765    
   1334.43      40.4959      11.2846    
   1356.01      40.0734      11.0956    
   1377.94      39.5939      10.9097    
   1400.23      39.0473      10.7269    
   1422.88      38.4203      10.5469    
   1445.89      37.6961      10.3695    
   1469.28      36.8494      10.1923    
   1493.04      35.8461      10.0139    
   1517.19      34.6260      9.82077    
   1541.73      33.0844      9.62888    
   1566.67      31.0787      9.44066    
   1592.01      28.3031      9.25604    
   1617.76      23.9987      9.07494    
   1643.92      15.1224      8.89728    
   1661.60     -39.1499      8.78076    
   1661.80     -39.1317      42.1283    
   1670.51      8.82000      41.8085    
   1697.53      24.4693      40.8422    
   1724.99      31.0186      39.8982    
   1752.89      35.2660      38.9760    
   1781.24      38.4069      38.0751    
   1810.05      40.8814      37.1949    
   1839.32      42.9009      36.3345    
   1869.07      44.5822      35.4936    
   1899.30      45.9949      34.6715    
   1930.02      47.1807      33.8685    
   1961.24      48.1606      33.0838    
   1992.96      48.9349      32.3171    
   2025.20      49.4740      31.5755    
   2057.95      49.6651      30.8439    
   2091.24      48.8733      30.1281    
   2107.50      41.5636      29.7885    
   2107.70      41.5701      34.5581    
   2125.06      49.8487      34.1337    
   2159.43      52.2226      33.3186    
   2194.36      53.6142      32.5246    
   2229.85      54.6430      31.7482    
   2265.92      55.4335      30.9911    
   2302.57      55.9999      30.2522    
   2339.81      56.1951      29.5308    
   2365.30      53.2227      29.0536    
   2365.50      53.2264      30.9997    
   2377.66      56.4192      30.7670    
   2416.11      57.8893      30.0500    
   2455.19      58.7481      29.3500    
   2494.90      59.3913      28.6664    
   2535.26      59.8598      27.9999    
   2576.26      60.0311      27.3485    
   2600.80      57.9226      26.9707    
   2601.00      57.9340      28.4250    
   2617.93      60.4478      28.1514    
   2660.27      61.5416      27.4859    
   2703.30      62.2551      26.8371    
   2747.03      62.8372      26.2043    
   2791.46      63.3404      25.5865    
   2836.61      63.7856      24.9850    
   2882.49      64.1862      24.3974    
   2929.11      64.5482      23.8242    
   2976.48      64.8781      23.2658    
   3024.63      65.1794      22.7206    
   3073.55      65.4555      22.1893    
   3123.26      65.7090      21.6703    
   3173.78      65.9411      21.1647    
   3225.11      66.1556      20.6707    
   3277.27      66.3519      20.1898    
   3330.28      66.5326      19.7199    
   3384.15      66.6993      19.2620    
   3438.88      66.8524      18.8142    
   3494.50      66.9924      18.3779    
   3551.02      67.1210      17.9519    
   3608.46      67.2386      17.5362    
   3666.82      67.3461      17.1310    
   3726.13      67.4445      16.7341    
   3786.40      67.5334      16.3479    
   3847.64      67.6144      15.9706    
   3909.87      67.6881      15.6017    
   3973.11      67.7536      15.2415    
   4037.38      67.8122      14.8898    
   4102.68      67.8643      14.5463    
   4169.03      67.9101      14.2107    
   4236.46      67.9500      13.8830    
   4304.98      67.9844      13.5626    
   4374.62      68.0133      13.2495    
   4445.37      68.0371      12.9435    
   4517.27      68.0560      12.6445    
   4590.33      68.0703      12.3523    
   4664.58      68.0800      12.0664    
   4740.03      68.0854      11.7871    
   4816.69      68.0867      11.5139    
   4894.60      68.0839      11.2468    
   4973.77      68.0771      10.9854    
   5054.21      68.0666      10.7299    
   5135.96      68.0523      10.4800    
   5219.03      68.0343      10.2354    
   5303.44      68.0126      9.99621    
   5389.22      67.9874      9.76219    
   5476.39      67.9587      9.53315    
   5564.97      67.9264      9.30914    
   5654.98      67.8905      9.08989    
   5746.44      67.8513      8.87535    
   5839.39      67.8083      8.66531    
   5933.83      67.7618      8.45977    
   6029.81      67.7115      8.25876    
   6127.33      67.6574      8.06172    
   6226.44      67.5995      7.86908    
   6327.15      67.5374      7.68027    
   6429.48      67.4711      7.49571    
   6533.48      67.4004      7.31465    
   6639.15      67.3249      7.13757    
   6746.54      67.2444      6.96430    
   6855.65      67.1586      6.79446    
   6966.54      67.0669      6.62820    
   7079.22      66.9693      6.46550    
   7193.72      66.8647      6.30591    
   7310.07      66.7525      6.14973    
   7428.31      66.6319      5.99681    
   7548.45      66.5021      5.84708    
   7670.54      66.3618      5.70037    
   7794.61      66.2095      5.55671    
   7920.68      66.0433      5.41588    
   8048.79      65.8607      5.27766    
   8178.98      65.6587      5.14266    
   8311.26      65.4334      5.01013    
   8445.69      65.1790      4.88046    
   8582.29      64.8879      4.75328    
   8721.11      64.5482      4.62863    
   8862.16      64.1419      4.50669    
   9005.50      63.6376      4.38709    
   9151.16      62.9744      4.26994    
   9299.17      62.0057      4.15494    
   9449.58      60.1331      4.04230    
   9560.60      45.0829      3.96223    
   9560.80      45.0842      10.8083    
   9602.42      58.1544      10.7228    
   9757.73      61.5285      10.4129    
   9915.55      62.7092      10.1118    
   10075.9      63.3372      9.81947    
   10238.9      63.6503      9.53559    
   10404.5      63.6830      9.25992    
   10572.8      63.2845      8.99220    
   10739.3      55.3780      8.73891    
   10739.5      55.3795      12.2261    
   10743.8      59.5710      12.2172    
   10917.6      63.8637      11.8640    
   11094.2      64.5662      11.5210    
   11270.6      61.1117      11.1934    
   11270.8      61.1124      12.9423    
   11273.6      62.9999      12.9374    
   11455.9      65.8754      12.6256    
   11641.2      66.7244      12.3198    
   11829.5      67.3476      12.0198    
   12020.8      67.8535      11.7258    
   12215.3      68.2819      11.4377    
   12412.8      68.6534      11.1554    
   12613.6      68.9803      10.8789    
   12817.6      69.2708      10.6082    
   13025.0      69.5309      10.3432    
   13235.6      69.7650      10.0838    
   13449.7      69.9765      9.83001    
   13667.2      70.1682      9.58173    
   13888.3      70.3423      9.33890    
   14112.9      70.5007      9.10144    
   14341.2      70.6448      8.86930    
   14573.1      70.7762      8.64238    
   14808.9      70.8959      8.42063    
   15048.4      71.0050      8.20395    
   15291.8      71.1043      7.99227    
   15539.1      71.1947      7.78552    
   15790.4      71.2769      7.58359    
   16045.8      71.3514      7.38642    
   16305.4      71.4189      7.19392    
   16569.1      71.4799      7.00601    
   16837.1      71.5349      6.82260    
   17109.4      71.5842      6.64362    
   17386.1      71.6283      6.46897    
   17667.4      71.6676      6.29857    
   17953.1      71.7023      6.13235    
   18243.5      71.7328      5.97021    
   18538.6      71.7594      5.81208    
   18838.4      71.7824      5.65787    
   19143.1      71.8019      5.50751    
   19452.7      71.8182      5.36091    
   19767.4      71.8316      5.21799    
   20087.1      71.8421      5.07867    
   20412.0      71.8501      4.94287    
   20742.1      71.8556      4.81053    
   21077.6      71.8589      4.68155    
   21418.5      71.8600      4.55587    
   21765.0      71.8592      4.43341    
   22117.0      71.8565      4.31410    
   22474.7      71.8521      4.19787    
   22838.2      71.8461      4.08464    
   23207.6      71.8386      3.97435    
   23583.0      71.8297      3.86692    
   23964.4      71.8195      3.76229    
   24352.0      71.8081      3.66039    
   24745.9      71.7955      3.56116    
   25146.2      71.7819      3.46453    
   25552.9      71.7673      3.37045    
   25966.2      71.7518      3.27884    
   26386.1      71.7354      3.18965    
   26812.9      71.7182      3.10281    
   27246.6      71.7003      3.01828    
   27687.3      71.6818      2.93599    
   28135.1      71.6626      2.85588    
   28590.2      71.6429      2.77791    
   29052.6      71.6231      2.70201    
   29522.5      71.6099      2.62814    
   30000.0      71.5581      2.55624    
