 hg, Z=80, (Energy (eV),f1,f2)
   10.0000     -9999.00      3.07253    
   10.1617     -9999.00      3.05926    
   10.3261     -9999.00      3.04605    
   10.4931     -9999.00      3.03290    
   10.6628     -9999.00      3.01980    
   10.8353     -9999.00      3.00676    
   11.0106     -9999.00      3.02448    
   11.1886     -9999.00      3.04517    
   11.3696     -9999.00      3.06600    
   11.5535     -9999.00      3.08698    
   11.7404     -9999.00      3.10809    
   11.9303     -9999.00      3.12935    
   12.1232     -9999.00      3.15076    
   12.3193     -9999.00      3.17232    
   12.5186     -9999.00      3.19402    
   12.7210     -9999.00      3.21587    
   12.9268     -9999.00      3.23787    
   13.1359     -9999.00      3.26085    
   13.3483     -9999.00      3.31333    
   13.5642     -9999.00      3.36666    
   13.7836     -9999.00      3.42084    
   14.0066     -9999.00      3.47590    
   14.2331     -9999.00      3.53184    
   14.4633     -9999.00      3.58869    
   14.6973     -9999.00      3.65454    
   14.9350     -9999.00      3.73332    
   15.1765     -9999.00      3.81379    
   15.4220     -9999.00      3.89600    
   15.6714     -9999.00      3.97997    
   15.9249     -9999.00      4.06576    
   16.1825     -9999.00      4.15340    
   16.4442     -9999.00      4.24293    
   16.7102     -9999.00      4.33519    
   16.9805     -9999.00      4.45018    
   17.2551     -9999.00      4.56822    
   17.5342     -9999.00      4.68938    
   17.8178     -9999.00      4.81377    
   18.1060     -9999.00      4.94145    
   18.3989     -9999.00      5.07252    
   18.6964     -9999.00      5.20707    
   18.9988     -9999.00      5.34518    
   19.3061     -9999.00      5.51386    
   19.6184     -9999.00      5.69102    
   19.9357     -9999.00      5.87388    
   20.2582     -9999.00      6.06261    
   20.5858     -9999.00      6.25741    
   20.9188     -9999.00      6.45846    
   21.2571     -9999.00      6.66597    
   21.6009     -9999.00      6.87867    
   21.9503     -9999.00      7.08674    
   22.3053     -9999.00      7.30111    
   22.6661     -9999.00      7.52194    
   23.0327     -9999.00      7.74947    
   23.4053     -9999.00      7.98388    
   23.7838     -9999.00      8.22538    
   24.1685     -9999.00      8.47418    
   24.5594     -9999.00      8.70989    
   24.9566     -9999.00      8.94366    
   25.3603     -9999.00      9.18369    
   25.7705     -9999.00      9.43017    
   26.1873     -9999.00      9.68326    
   26.6109     -9999.00      9.94314    
   27.0413     -9999.00      10.2100    
   27.4786     -9999.00      10.4840    
   27.9231     -9999.00      10.6960    
   28.3747     -9999.00      10.8885    
   28.8337     -9999.00      11.0844    
   29.3000     -2.93636      11.2839    
   29.7739     -2.82752      11.4869    
   30.2555     -2.72514      11.6937    
   30.7449     -2.63802      11.9041    
   31.2421     -2.55260      12.1628    
   31.7475     -2.44187      12.4307    
   32.2609     -2.31430      12.7044    
   32.7827     -2.17221      12.9842    
   33.3130     -2.01396      13.2702    
   33.8518     -1.83052      13.5624    
   34.3993     -1.60296      13.8400    
   34.9557     -1.38915      14.0749    
   35.5211     -1.18659      14.3138    
   36.0956    -0.983485      14.5567    
   36.6794    -0.776467      14.8038    
   37.2727    -0.563204      15.0550    
   37.8755    -0.341447      15.3105    
   38.4882    -0.106965      15.5704    
   39.1107     0.137915      15.8220    
   39.7432     0.387243      16.0766    
   40.3861     0.645140      16.3352    
   41.0393     0.914610      16.5980    
   41.7031      1.19814      16.8650    
   42.3776      1.49891      17.1363    
   43.0630      1.82133      17.4120    
   43.7595      2.18172      17.6921    
   44.4673      2.61967      17.9286    
   45.1865      3.01355      18.0966    
   45.9174      3.38479      18.2661    
   46.6600      3.75367      18.4373    
   47.4147      4.12552      18.6101    
   48.1816      4.50445      18.7845    
   48.9609      4.89454      18.9605    
   49.7528      5.30093      19.1381    
   50.5576      5.73231      19.3175    
   51.3753      6.21753      19.4985    
   52.2062      6.74634      19.5662    
   53.0506      7.21448      19.5987    
   53.9087      7.65316      19.6312    
   54.7806      8.08237      19.6638    
   55.6667      8.50732      19.6964    
   56.5670      8.93235      19.7291    
   57.4820      9.36215      19.7618    
   58.4117      9.80141      19.7869    
   59.3564      10.2413      19.8062    
   60.3165      10.6888      19.8256    
   61.2921      11.1503      19.8450    
   62.2834      11.6344      19.8644    
   63.2908      12.1598      19.8838    
   64.3145      12.7887      19.8664    
   65.3547      13.3718      19.6566    
   66.4118      13.8844      19.4490    
   67.4859      14.3651      19.2436    
   68.5775      14.8534      19.0404    
   69.6867      15.3342      18.7511    
   70.8138      15.7500      18.4478    
   71.9591      16.1220      18.1495    
   73.1230      16.4617      17.8608    
   74.3057      16.7907      17.5907    
   75.5076      17.1141      17.3247    
   76.7289      17.4366      17.0627    
   77.9699      17.7770      16.8047    
   79.2310      18.1279      16.4741    
   80.5125      18.4198      16.1232    
   81.8147      18.6727      15.7799    
   83.1380      18.9035      15.4438    
   84.4827      19.1171      15.1149    
   85.8491      19.3178      14.7930    
   87.2377      19.5115      14.4779    
   88.6487      19.7142      14.1521    
   90.0825      19.8816      13.8075    
   91.5395      20.0262      13.4713    
   93.0201      20.1549      13.1433    
   94.5246      20.2718      12.8233    
   96.0535      20.3804      12.5110    
   97.6071      20.4879      12.2064    
   99.1858      20.6145      11.8844    
   100.790      20.7020      11.5402    
   102.420      20.7619      11.2059    
   104.077      20.8080      10.8813    
   105.760      20.8450      10.5661    
   107.471      20.8787      10.2601    
   109.209      20.9207      9.96286    
   110.975      21.0150      9.65744    
   112.770      21.0519      9.21341    
   114.594      21.0107      8.78980    
   116.448      20.9153      8.38567    
   118.331      20.7797      8.00013    
   120.245      20.5986      7.63230    
   122.190      20.3655      7.32570    
   124.166      20.1586      7.07301    
   126.175      19.9579      6.82902    
   128.215      19.7529      6.59344    
   130.289      19.5389      6.36601    
   132.397      19.3067      6.15042    
   134.538      19.0705      5.95480    
   136.714      18.8285      5.76540    
   138.925      18.5740      5.58202    
   141.172      18.3009      5.40449    
   143.456      18.0078      5.24183    
   145.776      17.6951      5.08750    
   148.134      17.3370      4.93772    
   150.530      16.9642      4.87215    
   152.964      16.5968      4.81343    
   155.439      16.1891      4.75541    
   157.953      15.7585      4.80074    
   160.507      15.3789      4.88434    
   163.103      15.0170      4.96941    
   165.742      14.6506      5.05595    
   168.422      14.2446      5.14401    
   171.146      13.8178      5.34539    
   173.915      13.4428      5.58662    
   176.727      13.1055      5.83872    
   179.586      12.7850      6.10221    
   182.491      12.4721      6.38004    
   185.442      12.1747      6.67888    
   188.442      11.8911      6.99172    
   191.489      11.6185      7.31920    
   194.587      11.3553      7.66203    
   197.734      11.1006      8.02090    
   200.932      10.8491      8.39660    
   204.182      10.6018      8.80498    
   207.485      10.3776      9.24485    
   210.840      10.1755      9.70670    
   214.251      9.99568      10.1916    
   217.716      9.84241      10.7008    
   221.237      9.72237      11.2353    
   224.816      9.65744      11.7966    
   228.452      9.67730      12.3066    
   232.147      9.66648      12.7670    
   235.902      9.63102      13.2447    
   239.717      9.60004      13.7403    
   243.595      9.57798      14.2544    
   247.535      9.56982      14.7877    
   251.538      9.57959      15.3410    
   255.607      9.61587      15.9149    
   259.741      9.68755      16.4896    
   263.942      9.76880      17.0667    
   268.211      9.86372      17.6640    
   272.549      9.98487      18.2821    
   276.957      10.1389      18.9220    
   281.437      10.3368      19.5842    
   285.989      10.6552      20.2337    
   290.615      10.9558      20.7994    
   295.315      11.2374      21.3809    
   300.092      11.5394      21.9786    
   304.945      11.8723      22.5931    
   309.878      12.2504      23.2247    
   314.890      12.7374      23.8741    
   319.983      13.2999      24.3855    
   325.158      13.7962      24.8196    
   330.418      14.2648      25.2616    
   335.762      14.7313      25.7113    
   341.192      15.2081      26.1691    
   346.711      15.7048      26.6351    
   352.319      16.2323      27.1093    
   358.017      16.8589      27.5920    
   363.808      17.4985      27.9279    
   369.692      18.0880      28.2467    
   375.672      18.6661      28.5691    
   381.748      19.2505      28.8953    
   387.922      19.8580      29.2252    
   394.197      20.5309      29.5132    
   400.573      21.1741      29.7341    
   407.052      21.7883      29.9566    
   413.635      22.4086      30.1808    
   420.326      23.0509      30.4067    
   427.124      23.7740      30.6163    
   434.032      24.4563      30.6744    
   441.052      25.0869      30.7327    
   448.186      25.6884      30.7910    
   455.435      26.2794      30.8495    
   462.802      26.8671      30.8918    
   470.287      27.4354      30.9212    
   477.894      27.9875      30.9511    
   485.623      28.5320      30.9803    
   493.478      29.0712      31.0094    
   501.459      29.6101      31.0394    
   509.570      30.1554      31.0701    
   517.812      30.7290      31.0901    
   526.187      31.3162      31.0700    
   534.698      31.8882      30.9759    
   543.346      32.3903      30.8452    
   552.134      32.8361      30.7141    
   561.065      33.2198      30.5774    
   570.139      33.4591      30.4685    
   579.361      33.7198      30.5723    
   588.732      34.0402      30.7373    
   598.254      34.4509      30.9423    
   607.930      34.9281      31.1481    
   617.763      35.4674      31.3552    
   627.755      36.0980      31.5566    
   637.908      36.8035      31.6736    
   648.226      37.5388      31.6805    
   658.711      38.2116      31.6143    
   669.365      38.8603      31.5474    
   680.191      39.5124      31.4605    
   691.193      40.1714      31.3544    
   702.372      40.8575      31.2131    
   713.733      41.5432      30.9675    
   725.277      42.1324      30.6518    
   737.008      42.6508      30.3390    
   748.928      43.1150      30.0291    
   761.042      43.5166      29.7256    
   773.351      43.8360      29.4628    
   785.859      44.1141      29.3232    
   798.570      44.4848      29.2847    
   811.486      44.9270      29.2459    
   824.611      45.4263      29.2069    
   837.949      46.0113      29.1677    
   851.502      46.6760      29.0223    
   865.274      47.3675      28.7464    
   879.269      47.9452      28.3570    
   893.491      48.4459      27.9725    
   907.943      48.9030      27.5928    
   922.628      49.3287      27.2178    
   937.551      49.7291      26.8459    
   952.715      50.1088      26.4782    
   968.124      50.4715      26.1148    
   983.783      50.8222      25.7560    
   999.695      51.1671      25.3966    
   1015.86      51.5171      25.0362    
   1032.29      51.8379      24.6260    
   1048.99      52.1235      24.2223    
   1065.96      52.3824      23.8254    
   1083.20      52.6210      23.4346    
   1100.72      52.8415      23.0498    
   1118.52      53.0454      22.6709    
   1136.61      53.2341      22.2982    
   1155.00      53.4086      21.9311    
   1173.68      53.5691      21.5694    
   1192.66      53.7165      21.2137    
   1211.95      53.8517      20.8634    
   1231.55      53.9746      20.5183    
   1251.47      54.0854      20.1785    
   1271.72      54.1847      19.8441    
   1292.29      54.2724      19.5146    
   1313.19      54.3488      19.1907    
   1334.43      54.4145      18.8717    
   1356.01      54.4691      18.5574    
   1377.94      54.5127      18.2481    
   1400.23      54.5456      17.9437    
   1422.88      54.5678      17.6439    
   1445.89      54.5800      17.3489    
   1469.28      54.5839      17.0567    
   1493.04      54.5797      16.7661    
   1517.19      54.5589      16.4667    
   1541.73      54.5183      16.1707    
   1566.67      54.4587      15.8797    
   1592.01      54.3815      15.5938    
   1617.76      54.2865      15.3129    
   1643.92      54.1734      15.0371    
   1670.51      54.0415      14.7659    
   1697.53      53.8893      14.4994    
   1724.99      53.7206      14.2373    
   1752.89      53.5270      13.9699    
   1781.24      53.3017      13.7038    
   1810.05      53.0420      13.4398    
   1839.32      52.7442      13.1809    
   1869.07      52.4057      12.9270    
   1899.30      52.0210      12.6778    
   1930.02      51.5831      12.4336    
   1961.24      51.0832      12.1941    
   1992.96      50.5065      11.9589    
   2025.20      49.8471      11.7349    
   2057.95      49.0744      11.5020    
   2091.24      48.1461      11.2713    
   2125.06      47.0124      11.0446    
   2159.43      45.5838      10.8203    
   2194.36      43.6910      10.5992    
   2229.85      40.9486      10.3814    
   2265.92      36.0137      10.1666    
   2294.80      4.47859      10.0002    
   2295.00      4.48259      27.3119    
   2302.57      28.0765      27.1770    
   2339.81      36.1542      26.5292    
   2377.66      33.2392      25.8985    
   2384.80      17.9606      25.7823    
   2385.00      17.9772      37.4002    
   2416.11      41.1985      36.7442    
   2455.19      46.0133      35.9479    
   2494.90      49.0628      35.1690    
   2535.26      51.3245      34.4084    
   2576.26      53.1038      33.6654    
   2617.93      54.5369      32.9389    
   2660.27      55.6914      32.2297    
   2703.30      56.5898      31.5355    
   2747.03      57.2059      30.8580    
   2791.46      57.3883      30.1958    
   2836.61      55.9116      29.5479    
   2847.00      49.2960      29.4022    
   2847.20      49.3010      34.0195    
   2882.49      58.6253      33.4451    
   2929.11      60.6396      32.7114    
   2976.48      61.9905      31.9945    
   3024.63      63.0513      31.2940    
   3073.55      63.9245      30.6098    
   3123.26      64.6466      29.9407    
   3173.78      65.2194      29.2878    
   3225.11      65.5799      28.6498    
   3277.27      64.3315      28.0253    
   3278.40      63.0838      28.0121    
   3278.60      63.0866      29.5921    
   3330.28      66.8045      28.9393    
   3384.15      67.6547      28.2846    
   3438.88      68.2680      27.6458    
   3494.50      68.6972      27.0222    
   3551.02      68.6258      26.4112    
   3561.50      67.1150      26.3005    
   3561.70      67.1168      27.3823    
   3608.46      69.6498      26.9033    
   3666.82      70.4013      26.3256    
   3726.13      70.9957      25.7572    
   3786.40      71.5108      25.1948    
   3847.64      71.9710      24.6429    
   3909.87      72.3896      24.0991    
   3973.11      72.7736      23.5643    
   4037.38      73.1265      23.0364    
   4102.68      73.4511      22.5185    
   4169.03      73.7511      22.0090    
   4236.46      74.0282      21.5088    
   4304.98      74.2847      21.0175    
   4374.62      74.5222      20.5352    
   4445.37      74.7416      20.0608    
   4517.27      74.9438      19.5963    
   4590.33      75.1308      19.1400    
   4664.58      75.3026      18.6925    
   4740.03      75.4606      18.2538    
   4816.69      75.6054      17.8237    
   4894.60      75.7379      17.4022    
   4973.77      75.8587      16.9891    
   5054.21      75.9684      16.5845    
   5135.96      76.0676      16.1884    
   5219.03      76.1570      15.8005    
   5303.44      76.2369      15.4207    
   5389.22      76.3078      15.0491    
   5476.39      76.3703      14.6855    
   5564.97      76.4249      14.3298    
   5654.98      76.4716      13.9818    
   5746.44      76.5112      13.6416    
   5839.39      76.5438      13.3089    
   5933.83      76.5699      12.9836    
   6029.81      76.5896      12.6656    
   6127.33      76.6032      12.3550    
   6226.44      76.6112      12.0514    
   6327.15      76.6137      11.7549    
   6429.48      76.6109      11.4651    
   6533.48      76.6029      11.1820    
   6639.15      76.5902      10.9058    
   6746.54      76.5728      10.6360    
   6855.65      76.5509      10.3725    
   6966.54      76.5245      10.1153    
   7079.22      76.4940      9.86417    
   7193.72      76.4592      9.61900    
   7310.07      76.4203      9.37981    
   7428.31      76.3774      9.14631    
   7548.45      76.3304      8.91864    
   7670.54      76.2797      8.69658    
   7794.61      76.2251      8.47975    
   7920.68      76.1665      8.26849    
   8048.79      76.1041      8.06206    
   8178.98      76.0374      7.86075    
   8311.26      75.9666      7.66473    
   8445.69      75.8919      7.47362    
   8582.29      75.8126      7.28674    
   8721.11      75.7284      7.10497    
   8862.16      75.6398      6.92776    
   9005.50      75.5459      6.75475    
   9151.16      75.4463      6.58634    
   9299.17      75.3410      6.42200    
   9449.58      75.2289      6.26186    
   9602.42      75.1098      6.10574    
   9757.73      74.9829      5.95350    
   9915.55      74.8478      5.80493    
   10075.9      74.7019      5.65634    
   10238.9      74.5409      5.51188    
   10404.5      74.3644      5.37147    
   10572.8      74.1699      5.23498    
   10743.8      73.9534      5.10236    
   10917.6      73.7098      4.97348    
   11094.2      73.4312      4.84827    
   11273.6      73.1060      4.72664    
   11455.9      72.7147      4.60849    
   11641.2      72.2226      4.49375    
   11829.5      71.5569      4.38232    
   12020.8      70.5173      4.27413    
   12215.3      67.9670      4.16909    
   12283.8      55.3552      4.13308    
   12284.0      55.3557      10.2207    
   12412.8      69.3063      10.0367    
   12613.6      71.1192      9.76032    
   12817.6      71.9849      9.49152    
   13025.0      72.5012      9.23011    
   13235.6      72.8108      8.97592    
   13449.7      72.9582      8.72873    
   13667.2      72.9382      8.48834    
   13888.3      72.6709      8.25459    
   14112.9      71.6735      8.02726    
   14208.6      64.9078      7.93341    
   14208.8      64.9081      11.0648    
   14341.2      72.1631      10.9036    
   14573.1      73.2426      10.6301    
   14808.9      73.3770      10.3636    
   14839.2      73.7230      10.3301    
   14839.4      73.7211      11.8309    
   15048.4      73.5579      11.5967    
   15291.8      74.7972      11.3337    
   15539.1      75.4312      11.0746    
   15790.4      75.9158      10.8193    
   16045.8      76.3168      10.5681    
   16305.4      76.6606      10.3209    
   16569.1      76.9613      10.0778    
   16837.1      77.2279      9.83877    
   17109.4      77.4663      9.60395    
   17386.1      77.6809      9.37331    
   17667.4      77.8749      9.14687    
   17953.1      78.0509      8.92464    
   18243.5      78.2111      8.70661    
   18538.6      78.3570      8.49278    
   18838.4      78.4901      8.28314    
   19143.1      78.6116      8.07768    
   19452.7      78.7225      7.87637    
   19767.4      78.8238      7.67918    
   20087.1      78.9162      7.48608    
   20412.0      79.0005      7.29705    
   20742.1      79.0772      7.11204    
   21077.6      79.1469      6.93101    
   21418.5      79.2102      6.75393    
   21765.0      79.2675      6.58074    
   22117.0      79.3192      6.41141    
   22474.7      79.3657      6.24587    
   22838.2      79.4073      6.08408    
   23207.6      79.4444      5.92598    
   23583.0      79.4773      5.77152    
   23964.4      79.5062      5.62065    
   24352.0      79.5315      5.47331    
   24745.9      79.5533      5.32944    
   25146.2      79.5718      5.18898    
   25552.9      79.5873      5.05189    
   25966.2      79.6000      4.91808    
   26386.1      79.6100      4.78752    
   26812.9      79.6176      4.66013    
   27246.6      79.6228      4.53586    
   27687.3      79.6259      4.41466    
   28135.1      79.6270      4.29645    
   28590.2      79.6264      4.18118    
   29052.6      79.6246      4.06880    
   29522.5      79.6317      3.95924    
   30000.0      79.5807      3.85244    
