 la, Z=57, (Energy (eV),f1,f2)
   10.0000     -9999.00      1.29323    
   10.1617     -9999.00      1.27127    
   10.3261     -9999.00      1.24969    
   10.4931     -9999.00      1.22847    
   10.6628     -9999.00      1.20761    
   10.8353     -9999.00      1.18710    
   11.0106     -9999.00      1.16695    
   11.1886     -9999.00      1.14713    
   11.3696     -9999.00      1.12765    
   11.5535     -9999.00      1.10850    
   11.7404     -9999.00      1.08967    
   11.9303     -9999.00      1.06501    
   12.1232     -9999.00      1.04091    
   12.3193     -9999.00      1.01736    
   12.5186     -9999.00     0.994334    
   12.7210     -9999.00     0.971392    
   12.9268     -9999.00     0.948329    
   13.1359     -9999.00     0.925815    
   13.3483     -9999.00     0.903834    
   13.5642     -9999.00     0.882376    
   13.7836     -9999.00     0.858075    
   14.0066     -9999.00     0.833326    
   14.2331     -9999.00     0.809291    
   14.4633     -9999.00     0.785949    
   14.6973     -9999.00     0.758558    
   14.9350     -9999.00     0.727577    
   15.1765     -9999.00     0.697862    
   15.4220     -9999.00     0.669361    
   15.6714     -9999.00     0.648001    
   15.9249     -9999.00     0.628378    
   16.1825     -9999.00     0.609348    
   16.4442     -9999.00     0.589580    
   16.7102     -9999.00     0.564186    
   16.9805     -9999.00     0.539887    
   17.2551     -9999.00     0.516635    
   17.5342     -9999.00     0.507396    
   17.8178     -9999.00     0.500191    
   18.1060     -9999.00     0.493089    
   18.3989     -9999.00     0.515045    
   18.6964     -9999.00     0.570681    
   18.9988     -9999.00     0.636214    
   19.3061     -9999.00     0.806622    
   19.6184     -9999.00      1.19775    
   19.9357     -9999.00      1.64037    
   20.2582     -9999.00      2.21590    
   20.5858     -9999.00      2.99331    
   20.9188     -9999.00      4.04349    
   21.2571     -9999.00      5.46210    
   21.6009     -9999.00      7.37843    
   21.9503     -9999.00      9.96709    
   22.3053     -9999.00      13.4639    
   22.6661     -9999.00      16.0721    
   23.0327     -9999.00      17.2793    
   23.4053     -9999.00      17.9528    
   23.7838     -9999.00      18.5360    
   24.1685     -9999.00      19.1382    
   24.5594     -9999.00      18.9836    
   24.9566     -9999.00      18.6309    
   25.3603     -9999.00      18.5651    
   25.7705     -9999.00      18.5428    
   26.1873     -9999.00      18.5205    
   26.6109     -9999.00      18.4982    
   27.0413     -9999.00      18.4760    
   27.4786     -9999.00      18.0980    
   27.9231     -9999.00      17.5668    
   28.3747     -9999.00      17.0512    
   28.8337     -9999.00      16.5507    
   29.3000      12.2701      16.0650    
   29.7739      13.0334      15.4720    
   30.2555      13.6018      14.7705    
   30.7449      14.0550      14.1007    
   31.2421      14.4307      13.4614    
   31.7475      14.7392      12.8510    
   32.2609      15.0251      12.3363    
   32.7827      15.4119      11.7504    
   33.3130      15.6487      11.0744    
   33.8518      15.7960      10.4374    
   34.3993      15.8851      9.83696    
   34.9557      15.9304      9.27108    
   35.5211      15.9406      8.73775    
   36.0956      15.9215      8.23511    
   36.6794      15.8778      7.76137    
   37.2727      15.8131      7.31489    
   37.8755      15.7305      6.89410    
   38.4882      15.6322      6.49750    
   39.1107      15.5202      6.12374    
   39.7432      15.3961      5.77146    
   40.3861      15.2610      5.43945    
   41.0393      15.1145      5.12654    
   41.7031      14.9536      4.83582    
   42.3776      14.7929      4.57317    
   43.0630      14.6327      4.32478    
   43.7595      14.4700      4.08989    
   44.4673      14.3043      3.86775    
   45.1865      14.1354      3.65768    
   45.9174      13.9633      3.45902    
   46.6600      13.7881      3.27115    
   47.4147      13.6096      3.09348    
   48.1816      13.4278      2.92546    
   48.9609      13.2427      2.76657    
   49.7528      13.0540      2.61630    
   50.5576      12.8618      2.47420    
   51.3753      12.6655      2.33982    
   52.2062      12.4651      2.21273    
   53.0506      12.2600      2.09255    
   53.9087      12.0496      1.97890    
   54.7806      11.8333      1.87142    
   55.6667      11.6100      1.76977    
   56.5670      11.3782      1.67365    
   57.4820      11.1353      1.58275    
   58.4117      10.8717      1.49678    
   59.3564      10.5754      1.45351    
   60.3165      10.3104      1.44062    
   61.2921      10.0598      1.42784    
   62.2834      9.81066      1.41518    
   63.2908      9.55949      1.40263    
   64.3145      9.30265      1.39019    
   65.3547      9.03841      1.38138    
   66.4118      8.76670      1.37340    
   67.4859      8.48340      1.36546    
   68.5775      8.18017      1.35757    
   69.6867      7.85300      1.37455    
   70.8138      7.53010      1.40484    
   71.9591      7.20254      1.43580    
   73.1230      6.86236      1.46745    
   74.3057      6.50554      1.49978    
   75.5076      6.12609      1.53283    
   76.7289      5.71123      1.57742    
   77.9699      5.28411      1.63776    
   79.2310      4.83613      1.70041    
   80.5125      4.35765      1.76546    
   81.8147      3.83975      1.83299    
   83.1380      3.26467      1.91755    
   84.4827      2.65904      2.02702    
   85.8491      2.00731      2.14273    
   87.2377      1.29392      2.26506    
   88.6487     0.499922      2.39436    
   90.0825    -0.408110      2.53105    
   91.5395     -1.52650      2.73963    
   93.0201     -2.69079      3.15201    
   94.5246     -3.91986      3.62646    
   96.0535     -5.24821      4.19968    
   97.6071     -6.70603      4.81068    
   99.1858     -8.65030      5.46061    
   100.790     -11.2771      8.28138    
   102.420     -8.92030      6.47146    
   104.077     -12.9360      6.31925    
   105.760     -16.8325      8.55669    
   107.471     -20.9245      10.1241    
   109.209     -27.1776      11.7941    
   110.975     -37.3157      17.1579    
   112.770     -50.3150      28.8243    
   114.594     -58.1661      58.8276    
   116.448     -36.4565      98.2235    
   118.331      5.61103      105.854    
   120.245      25.6449      85.3741    
   122.190      34.6392      73.3901    
   124.166      39.6429      65.1873    
   126.175      43.9370      58.2094    
   128.215      47.1318      51.7276    
   130.289      49.5293      45.9677    
   132.397      52.7684      39.5454    
   134.538      52.2198      32.0874    
   136.714      50.8749      28.2097    
   138.925      50.1751      24.8005    
   141.172      49.3929      20.9538    
   143.456      48.0311      17.6289    
   145.776      46.4816      15.1315    
   148.134      45.0232      13.0275    
   150.530      43.6421      11.2160    
   152.964      42.2981      9.65640    
   155.439      41.0016      8.31370    
   157.953      39.7501      7.15771    
   160.507      38.5432      6.16323    
   163.103      37.3932      5.32598    
   165.742      36.3055      4.60249    
   168.422      35.2687      3.97726    
   171.146      34.2796      3.42696    
   173.915      33.3114      2.94524    
   176.727      32.3389      2.54071    
   179.586      31.3713      2.24278    
   182.491      30.4798      2.08287    
   185.442      29.6547      1.98528    
   188.442      28.9052      1.95091    
   191.489      28.2011      1.93894    
   194.587      27.5685      1.98565    
   197.734      26.9857      2.03937    
   200.932      26.4448      2.10432    
   204.182      25.9113      2.18579    
   207.485      25.4193      2.31217    
   210.840      24.9588      2.46386    
   214.251      24.5463      2.64295    
   217.716      24.1760      2.83505    
   221.237      23.8578      3.04111    
   224.816      23.5719      3.21983    
   228.452      23.2951      3.40086    
   232.147      23.0349      3.59207    
   235.902      22.7942      3.79403    
   239.717      22.5759      4.00734    
   243.595      22.3891      4.23266    
   247.535      22.2349      4.44623    
   251.538      22.0846      4.65118    
   255.607      21.9448      4.86557    
   259.741      21.8206      5.08984    
   263.942      21.7161      5.32444    
   268.211      21.6352      5.56986    
   272.549      21.5850      5.82660    
   276.957      21.6199      6.07867    
   281.437      21.6450      6.24358    
   285.989      21.6451      6.41295    
   290.615      21.6463      6.58693    
   295.315      21.6541      6.76563    
   300.092      21.6730      6.94917    
   304.945      21.7083      7.13769    
   309.878      21.7737      7.33132    
   314.890      21.8791      7.48015    
   319.983      21.9628      7.59348    
   325.158      22.0271      7.70852    
   330.418      22.0896      7.82531    
   335.762      22.1531      7.94387    
   341.192      22.2204      8.06422    
   346.711      22.2938      8.18640    
   352.319      22.3762      8.31043    
   358.017      22.4949      8.42562    
   363.808      22.6005      8.50177    
   369.692      22.6890      8.57860    
   375.672      22.7742      8.65614    
   381.748      22.8585      8.73438    
   387.922      22.9433      8.81332    
   394.197      23.0304      8.89297    
   400.573      23.1212      8.97334    
   407.052      23.2269      9.05313    
   413.635      23.3305      9.11175    
   420.326      23.4275      9.17075    
   427.124      23.5242      9.23013    
   434.032      23.6231      9.28990    
   441.052      23.7262      9.35005    
   448.186      23.8366      9.41059    
   455.435      23.9572      9.47152    
   462.802      24.1393      9.51290    
   470.287      24.2896      9.48149    
   477.894      24.3995      9.45018    
   485.623      24.4967      9.41898    
   493.478      24.5853      9.38789    
   501.459      24.6687      9.35689    
   509.570      24.7704      9.32599    
   517.812      24.8614      9.24469    
   526.187      24.9168      9.15360    
   534.698      24.9494      9.06343    
   543.346      24.9645      8.97413    
   552.134      24.9646      8.88571    
   561.065      24.9523      8.79817    
   570.139      24.9366      8.71149    
   579.361      24.9038      8.59360    
   588.732      24.8385      8.47001    
   598.254      24.7418      8.34819    
   607.930      24.6180      8.22812    
   617.763      24.4659      8.10979    
   627.755      24.2818      7.99315    
   637.908      24.0572      7.89071    
   648.226      23.8127      7.80658    
   658.711      23.5475      7.72334    
   669.365      23.2503      7.64099    
   680.191      22.9159      7.55953    
   691.193      22.5376      7.47893    
   702.372      22.1289      7.39358    
   713.733      21.6399      7.27357    
   725.277      21.0473      7.15550    
   737.008      20.3438      7.03935    
   748.928      19.5012      6.92509    
   761.042      18.4767      6.81268    
   773.351      17.2016      6.70209    
   785.859      15.5572      6.59330    
   798.570      13.3135      6.48628    
   811.486      9.92764      6.38099    
   824.611      3.48958      6.27742    
   835.900     -39.4339      6.19096    
   836.100     -39.3987      35.2147    
   837.949     -11.7601      35.0835    
   851.502      8.18508      34.1450    
   865.274      14.5157      33.2315    
   879.269      18.4107      32.3425    
   893.491      21.1915      31.4772    
   907.943      23.3049      30.6351    
   922.628      24.9502      29.8155    
   937.551      26.2164      29.0179    
   952.715      27.0509      28.2416    
   968.124      27.6376      27.9285    
   983.783      28.2841      27.8022    
   999.695      29.0099      27.6764    
   1015.86      29.7133      27.5511    
   1032.29      30.3863      27.4265    
   1048.99      31.0171      27.3023    
   1065.96      31.5838      27.2233    
   1083.20      32.1645      27.2093    
   1100.72      32.7761      27.1952    
   1118.52      33.3916      27.1813    
   1136.61      34.0111      27.1673    
   1155.00      34.6359      27.1534    
   1173.68      35.2691      27.1396    
   1192.66      35.9153      27.1255    
   1211.95      36.5836      27.1115    
   1231.55      37.3029      27.0977    
   1251.47      38.0723      27.0038    
   1271.72      38.8633      26.8227    
   1292.29      39.5669      26.5356    
   1313.19      40.2028      26.2516    
   1334.43      40.8015      25.9705    
   1356.01      41.3743      25.6923    
   1377.94      41.9286      25.4173    
   1400.23      42.4707      25.1453    
   1422.88      43.0074      24.8761    
   1445.89      43.5492      24.6098    
   1469.28      44.1158      24.3257    
   1493.04      44.7133      24.0136    
   1517.19      45.2658      23.5751    
   1541.73      45.7461      23.1269    
   1566.67      46.1702      22.6876    
   1592.01      46.5601      22.2563    
   1617.76      46.9213      21.8331    
   1643.92      47.2583      21.4180    
   1670.51      47.5746      21.0108    
   1697.53      47.8723      20.6115    
   1724.99      48.1588      20.2200    
   1752.89      48.4295      19.8264    
   1781.24      48.6814      19.4374    
   1810.05      48.9163      19.0536    
   1839.32      49.1353      18.6777    
   1869.07      49.3413      18.3092    
   1899.30      49.5349      17.9478    
   1930.02      49.7174      17.5936    
   1961.24      49.8896      17.2464    
   1992.96      50.0497      16.9057    
   2025.20      50.2093      16.5790    
   2057.95      50.3625      16.2462    
   2091.24      50.5028      15.9183    
   2125.06      50.6342      15.5962    
   2159.43      50.7573      15.2789    
   2194.36      50.8723      14.9670    
   2229.85      50.9798      14.6605    
   2265.92      51.0802      14.3589    
   2302.57      51.1735      14.0622    
   2339.81      51.2601      13.7707    
   2377.66      51.3404      13.4841    
   2416.11      51.4146      13.2023    
   2455.19      51.4825      12.9252    
   2494.90      51.5451      12.6535    
   2535.26      51.6024      12.3855    
   2576.26      51.6542      12.1223    
   2617.93      51.7003      11.8630    
   2660.27      51.7411      11.6086    
   2703.30      51.7770      11.3585    
   2747.03      51.8078      11.1129    
   2791.46      51.8343      10.8718    
   2836.61      51.8564      10.6345    
   2882.49      51.8732      10.4004    
   2929.11      51.8851      10.1713    
   2976.48      51.8932      9.94604    
   3024.63      51.8966      9.72412    
   3073.55      51.8952      9.50635    
   3123.26      51.8895      9.29219    
   3173.78      51.8791      9.08180    
   3225.11      51.8643      8.87508    
   3277.27      51.8450      8.67190    
   3330.28      51.8210      8.47207    
   3384.15      51.7922      8.27576    
   3438.88      51.7587      8.08291    
   3494.50      51.7202      7.89329    
   3551.02      51.6766      7.70698    
   3608.46      51.6277      7.52382    
   3666.82      51.5733      7.34391    
   3726.13      51.5133      7.16708    
   3786.40      51.4471      6.99326    
   3847.64      51.3745      6.82239    
   3909.87      51.2951      6.65458    
   3973.11      51.2084      6.48964    
   4037.38      51.1139      6.32746    
   4102.68      51.0108      6.16808    
   4169.03      50.8982      6.01145    
   4236.46      50.7754      5.85768    
   4304.98      50.6411      5.70636    
   4374.62      50.4939      5.55774    
   4445.37      50.3321      5.41157    
   4517.27      50.1536      5.26805    
   4590.33      49.9557      5.12701    
   4664.58      49.7348      4.98827    
   4740.03      49.4866      4.85203    
   4816.69      49.2048      4.71808    
   4894.60      48.8812      4.58659    
   4973.77      48.5034      4.45712    
   5054.21      48.0527      4.32993    
   5135.96      47.4981      4.20491    
   5219.03      46.7832      4.08217    
   5303.44      45.7841      3.96142    
   5389.22      44.1227      3.84274    
   5476.39      37.4001      3.72662    
   5482.60      27.0890      3.71856    
   5482.80      27.0900      11.5444    
   5564.97      43.7526      11.2370    
   5654.98      45.3258      10.9146    
   5746.44      45.8683      10.6014    
   5839.39      45.4520      10.2972    
   5890.50      38.3752      10.1356    
   5890.70      38.3789      13.9401    
   5933.83      45.8379      13.7639    
   6029.81      47.6529      13.3842    
   6127.33      48.4750      13.0149    
   6226.44      48.6009      12.6557    
   6266.20      45.4692      12.5159    
   6266.40      45.4727      14.3563    
   6327.15      49.4936      14.1531    
   6429.48      50.6357      13.8215    
   6533.48      51.4133      13.4950    
   6639.15      52.0367      13.1744    
   6746.54      52.5639      12.8594    
   6855.65      53.0219      12.5501    
   6966.54      53.4262      12.2465    
   7079.22      53.7866      11.9484    
   7193.72      54.1105      11.6561    
   7310.07      54.4032      11.3693    
   7428.31      54.6686      11.0883    
   7548.45      54.9101      10.8129    
   7670.54      55.1304      10.5432    
   7794.61      55.3317      10.2789    
   7920.68      55.5159      10.0202    
   8048.79      55.6845      9.76690    
   8178.98      55.8389      9.51901    
   8311.26      55.9805      9.27660    
   8445.69      56.1102      9.03940    
   8582.29      56.2290      8.80741    
   8721.11      56.3377      8.58056    
   8862.16      56.4371      8.35871    
   9005.50      56.5277      8.14201    
   9151.16      56.6103      7.93032    
   9299.17      56.6856      7.72354    
   9449.58      56.7539      7.52137    
   9602.42      56.8156      7.32410    
   9757.73      56.8714      7.13152    
   9915.55      56.9216      6.94348    
   10075.9      56.9666      6.75989    
   10238.9      57.0066      6.58072    
   10404.5      57.0421      6.40588    
   10572.8      57.0733      6.23530    
   10743.8      57.1004      6.06890    
   10917.6      57.1238      5.90660    
   11094.2      57.1437      5.74831    
   11273.6      57.1603      5.59395    
   11455.9      57.1738      5.44347    
   11641.2      57.1844      5.29675    
   11829.5      57.1923      5.15374    
   12020.8      57.1977      5.01435    
   12215.3      57.2008      4.87851    
   12412.8      57.2016      4.74614    
   12613.6      57.2004      4.61716    
   12817.6      57.1972      4.49151    
   13025.0      57.1922      4.36910    
   13235.6      57.1856      4.24986    
   13449.7      57.1774      4.13373    
   13667.2      57.1677      4.02063    
   13888.3      57.1566      3.91049    
   14112.9      57.1442      3.80324    
   14341.2      57.1307      3.69882    
   14573.1      57.1160      3.59715    
   14808.9      57.1003      3.49818    
   15048.4      57.0837      3.40184    
   15291.8      57.0661      3.30806    
   15539.1      57.0477      3.21679    
   15790.4      57.0286      3.12796    
   16045.8      57.0087      3.04151    
   16305.4      56.9881      2.95739    
   16569.1      56.9669      2.87553    
   16837.1      56.9451      2.79588    
   17109.4      56.9227      2.71839    
   17386.1      56.8999      2.64299    
   17667.4      56.8765      2.56964    
   17953.1      56.8528      2.49829    
   18243.5      56.8286      2.42888    
   18538.6      56.8040      2.36137    
   18838.4      56.7790      2.29570    
   19143.1      56.7537      2.23183    
   19452.7      56.7280      2.16971    
   19767.4      56.7020      2.10930    
   20087.1      56.6756      2.05055    
   20412.0      56.6490      1.99341    
   20742.1      56.6220      1.93785    
   21077.6      56.5948      1.88382    
   21418.5      56.5672      1.83129    
   21765.0      56.5393      1.78021    
   22117.0      56.5111      1.73055    
   22474.7      56.4825      1.68226    
   22838.2      56.4536      1.63531    
   23207.6      56.4243      1.58966    
   23583.0      56.3946      1.54529    
   23964.4      56.3644      1.50215    
   24352.0      56.3338      1.46020    
   24745.9      56.3027      1.41943    
   25146.2      56.2710      1.37980    
   25552.9      56.2387      1.34127    
   25966.2      56.2057      1.30382    
   26386.1      56.1720      1.26741    
   26812.9      56.1374      1.23202    
   27246.6      56.1019      1.19762    
   27687.3      56.0653      1.16418    
   28135.1      56.0275      1.13168    
   28590.2      55.9883      1.10009    
   29052.6      55.9476      1.06938    
   29522.5      55.9052      1.03954    
   30000.0      55.8606      1.01053    
