 lu, Z=71, (Energy (eV),f1,f2)
   10.0000     -9999.00      1.67493    
   10.1617     -9999.00      1.63824    
   10.3261     -9999.00      1.60236    
   10.4931     -9999.00      1.56726    
   10.6628     -9999.00      1.53293    
   10.8353     -9999.00      1.49935    
   11.0106     -9999.00      1.46651    
   11.1886     -9999.00      1.43538    
   11.3696     -9999.00      1.42424    
   11.5535     -9999.00      1.41319    
   11.7404     -9999.00      1.40223    
   11.9303     -9999.00      1.38963    
   12.1232     -9999.00      1.36815    
   12.3193     -9999.00      1.34699    
   12.5186     -9999.00      1.32616    
   12.7210     -9999.00      1.30108    
   12.9268     -9999.00      1.27644    
   13.1359     -9999.00      1.25227    
   13.3483     -9999.00      1.22856    
   13.5642     -9999.00      1.20529    
   13.7836     -9999.00      1.18260    
   14.0066     -9999.00      1.16139    
   14.2331     -9999.00      1.14057    
   14.4633     -9999.00      1.12012    
   14.6973     -9999.00      1.10004    
   14.9350     -9999.00      1.08087    
   15.1765     -9999.00      1.06523    
   15.4220     -9999.00      1.04981    
   15.6714     -9999.00      1.03462    
   15.9249     -9999.00      1.01964    
   16.1825     -9999.00      1.00020    
   16.4442     -9999.00     0.975191    
   16.7102     -9999.00     0.950806    
   16.9805     -9999.00     0.927030    
   17.2551     -9999.00     0.903850    
   17.5342     -9999.00     0.881514    
   17.8178     -9999.00     0.862480    
   18.1060     -9999.00     0.843858    
   18.3989     -9999.00     0.825637    
   18.6964     -9999.00     0.807810    
   18.9988     -9999.00     0.790368    
   19.3061     -9999.00     0.774573    
   19.6184     -9999.00     0.759473    
   19.9357     -9999.00     0.744668    
   20.2582     -9999.00     0.730150    
   20.5858     -9999.00     0.715945    
   20.9188     -9999.00     0.703634    
   21.2571     -9999.00     0.691534    
   21.6009     -9999.00     0.679642    
   21.9503     -9999.00     0.667955    
   22.3053     -9999.00     0.656062    
   22.6661     -9999.00     0.644332    
   23.0327     -9999.00     0.633762    
   23.4053     -9999.00     0.630564    
   23.7838     -9999.00     0.627382    
   24.1685     -9999.00     0.624398    
   24.5594     -9999.00     0.622140    
   24.9566     -9999.00     0.619890    
   25.3603     -9999.00     0.617835    
   25.7705     -9999.00     0.617480    
   26.1873     -9999.00     0.617126    
   26.6109     -9999.00     0.620682    
   27.0413     -9999.00     0.641341    
   27.4786     -9999.00     0.669383    
   27.9231     -9999.00     0.705770    
   28.3747     -9999.00     0.786806    
   28.8337     -9999.00     0.945780    
   29.3000     -5.13090      2.22990    
   29.7739     -6.18539      3.36209    
   30.2555     -6.32453      6.12834    
   30.7449     -5.77834      8.07995    
   31.2421     -5.04485      9.73344    
   31.7475     -3.74155      10.7388    
   32.2609     -2.59986      11.3775    
   32.7827     -1.70248      11.7607    
   33.3130    -0.887875      12.1117    
   33.8518    -0.189434      12.3588    
   34.3993     0.413745      12.6108    
   34.9557      1.01706      12.9595    
   35.5211      1.71157      13.3180    
   36.0956      2.60518      13.5384    
   36.6794      3.35352      13.5136    
   37.2727      4.02103      13.5029    
   37.8755      4.69810      13.4923    
   38.4882      5.49659      13.2747    
   39.1107      5.95621      12.8612    
   39.7432      6.27972      12.6620    
   40.3861      6.62276      12.4867    
   41.0393      6.95088      12.3139    
   41.7031      7.25824      12.1448    
   42.3776      7.55134      11.9803    
   43.0630      7.83909      11.8180    
   43.7595      8.12548      11.6127    
   44.4673      8.34838      11.3849    
   45.1865      8.51864      11.1616    
   45.9174      8.62024      10.9753    
   46.6600      8.73057      10.8280    
   47.4147      8.82007      10.6827    
   48.1816      8.85247      10.6053    
   48.9609      8.95232      10.5888    
   49.7528      9.09655      10.5724    
   50.5576      9.30515      10.5139    
   51.3753      9.46366      10.3977    
   52.2062      9.58880      10.2828    
   53.0506      9.69055      10.1691    
   53.9087      9.75948      10.0789    
   54.7806      9.84273      10.0107    
   55.6667      9.93033      9.94298    
   56.5670      10.0153      9.87570    
   57.4820      10.0965      9.80901    
   58.4117      10.1725      9.74277    
   59.3564      10.2411      9.67698    
   60.3165      10.2983      9.61959    
   61.2921      10.3596      9.57064    
   62.2834      10.4219      9.52195    
   63.2908      10.4881      9.47349    
   64.3145      10.5430      9.40084    
   65.3547      10.5733      9.32876    
   66.4118      10.5656      9.25723    
   67.4859      10.5449      9.26438    
   68.5775      10.5570      9.28227    
   69.6867      10.5875      9.30021    
   70.8138      10.6274      9.31817    
   71.9591      10.6792      9.33294    
   73.1230      10.7303      9.33764    
   74.3057      10.7803      9.34233    
   75.5076      10.8335      9.34703    
   76.7289      10.8992      9.35174    
   77.9699      10.9802      9.31416    
   79.2310      11.0158      9.24810    
   80.5125      11.0182      9.18251    
   81.8147      10.9865      9.11739    
   83.1380      10.8933      9.05273    
   84.4827      10.6856      9.11605    
   85.8491      10.5999      9.29614    
   87.2377      10.6094      9.47978    
   88.6487      10.6968      9.61217    
   90.0825      10.7548      9.68953    
   91.5395      10.8041      9.76751    
   93.0201      10.8570      9.84612    
   94.5246      10.9312      9.91122    
   96.0535      10.9818      9.93913    
   97.6071      11.0099      9.96712    
   99.1858      11.0168      9.99519    
   100.790      10.9868      10.0373    
   102.420      10.9672      10.1237    
   104.077      10.9556      10.2108    
   105.760      10.9421      10.2987    
   107.471      10.9112      10.3873    
   109.209      10.8722      10.5245    
   110.975      10.8563      10.6750    
   112.770      10.8545      10.8277    
   114.594      10.8554      10.9825    
   116.448      10.8554      11.1528    
   118.331      10.8703      11.3341    
   120.245      10.8966      11.5184    
   122.190      10.9298      11.7056    
   124.166      10.9682      11.8959    
   126.175      11.0064      12.0936    
   128.215      11.0575      12.3054    
   130.289      11.1205      12.5209    
   132.397      11.1940      12.7402    
   134.538      11.2779      12.9633    
   136.714      11.3730      13.1899    
   138.925      11.4792      13.4198    
   141.172      11.5982      13.6536    
   143.456      11.7343      13.8915    
   145.776      11.9052      14.1335    
   148.134      12.0929      14.3249    
   150.530      12.2603      14.5029    
   152.964      12.4213      14.6831    
   155.439      12.5826      14.8655    
   157.953      12.7498      15.0502    
   160.507      12.9268      15.2228    
   163.103      13.0951      15.3871    
   165.742      13.2571      15.5533    
   168.422      13.4173      15.7212    
   171.146      13.5759      15.8909    
   173.915      13.7312      16.0625    
   176.727      13.8831      16.2452    
   179.586      14.0419      16.4348    
   182.491      14.2080      16.6250    
   185.442      14.3708      16.8112    
   188.442      14.5235      16.9981    
   191.489      14.6361      17.2002    
   194.587      14.7714      17.4824    
   197.734      14.9368      17.7937    
   200.932      15.1601      18.1311    
   204.182      15.4360      18.4747    
   207.485      15.7752      18.8251    
   210.840      16.2410      19.1824    
   214.251      16.7362      19.3133    
   217.716      17.1946      19.3954    
   221.237      17.5776      19.4386    
   224.816      17.9243      19.4816    
   228.452      18.2486      19.5246    
   232.147      18.5567      19.5675    
   235.902      18.8522      19.6106    
   239.717      19.1376      19.6537    
   243.595      19.4138      19.6968    
   247.535      19.6825      19.7406    
   251.538      19.9450      19.7842    
   255.607      20.1999      19.8272    
   259.741      20.4478      19.8713    
   263.942      20.6887      19.9153    
   268.211      20.9203      19.9590    
   272.549      21.1380      20.0034    
   276.957      21.3278      20.0690    
   281.437      21.5270      20.1618    
   285.989      21.7424      20.2728    
   290.615      21.9708      20.3867    
   295.315      22.2089      20.5010    
   300.092      22.4541      20.6167    
   304.945      22.7062      20.7326    
   309.878      22.9636      20.8483    
   314.890      23.2261      20.9654    
   319.983      23.4944      21.0834    
   325.158      23.7689      21.2020    
   330.418      24.0494      21.3212    
   335.762      24.3364      21.4412    
   341.192      24.6308      21.5622    
   346.711      24.9331      21.6830    
   352.319      25.2433      21.8044    
   358.017      25.5634      21.9272    
   363.808      25.8949      22.0504    
   369.692      26.2398      22.1746    
   375.672      26.6027      22.2999    
   381.748      26.9918      22.4254    
   387.922      27.4250      22.5363    
   394.197      27.9048      22.6140    
   400.573      28.3898      22.5829    
   407.052      28.8070      22.5089    
   413.635      29.1859      22.4360    
   420.326      29.5409      22.3627    
   427.124      29.8762      22.2895    
   434.032      30.1931      22.2165    
   441.052      30.4916      22.1437    
   448.186      30.7405      22.0809    
   455.435      30.9877      22.0675    
   462.802      31.2466      22.0891    
   470.287      31.5326      22.1297    
   477.894      31.8457      22.1711    
   485.623      32.1759      22.2115    
   493.478      32.5224      22.2518    
   501.459      32.8900      22.2935    
   509.570      33.2859      22.3342    
   517.812      33.7360      22.3605    
   526.187      34.2243      22.3366    
   534.698      34.7161      22.2171    
   543.346      35.1450      22.0511    
   552.134      35.5407      21.8864    
   561.065      35.9175      21.7108    
   570.139      36.2747      21.5299    
   579.361      36.6117      21.3446    
   588.732      36.9335      21.1599    
   598.254      37.2430      20.9760    
   607.930      37.5433      20.7936    
   617.763      37.8376      20.6129    
   627.755      38.1335      20.4324    
   637.908      38.4295      20.2370    
   648.226      38.7158      20.0195    
   658.711      38.9707      19.7886    
   669.365      39.1944      19.5602    
   680.191      39.3930      19.3652    
   691.193      39.6018      19.1954    
   702.372      39.8433      19.0299    
   713.733      40.0948      18.8287    
   725.277      40.3189      18.6043    
   737.008      40.5237      18.3823    
   748.928      40.7167      18.1627    
   761.042      40.9019      17.9453    
   773.351      41.0831      17.7267    
   785.859      41.2576      17.4989    
   798.570      41.4140      17.2644    
   811.486      41.5554      17.0327    
   824.611      41.6851      16.8039    
   837.949      41.8049      16.5780    
   851.502      41.9152      16.3533    
   865.274      42.0159      16.1299    
   879.269      42.1059      15.9079    
   893.491      42.1860      15.6886    
   907.943      42.2574      15.4721    
   922.628      42.3222      15.2584    
   937.551      42.3774      15.0407    
   952.715      42.4216      14.8243    
   968.124      42.4542      14.6096    
   983.783      42.4772      14.3977    
   999.695      42.4929      14.1863    
   1015.86      42.5046      13.9753    
   1032.29      42.4993      13.7453    
   1048.99      42.4733      13.5159    
   1065.96      42.4251      13.2872    
   1083.20      42.3571      13.0623    
   1100.72      42.2702      12.8409    
   1118.52      42.1640      12.6231    
   1136.61      42.0372      12.4082    
   1155.00      41.8890      12.1969    
   1173.68      41.7182      11.9892    
   1192.66      41.5228      11.7846    
   1211.95      41.3007      11.5832    
   1231.55      41.0489      11.3850    
   1251.47      40.7641      11.1899    
   1271.72      40.4423      10.9985    
   1292.29      40.0791      10.8105    
   1313.19      39.6681      10.6257    
   1334.43      39.2016      10.4437    
   1356.01      38.6688      10.2643    
   1377.94      38.0560      10.0881    
   1400.23      37.3454      9.91473    
   1422.88      36.5112      9.74406    
   1445.89      35.5162      9.57594    
   1469.28      34.3037      9.40860    
   1493.04      32.7767      9.24109    
   1517.19      30.7470      9.06467    
   1541.73      27.8052      8.88992    
   1566.67      22.6054      8.71842    
   1588.40     -11.0350      8.57380    
   1588.60     -11.0358      27.8270    
   1592.01      10.6573      27.7312    
   1617.76      21.1871      27.0244    
   1643.92      21.3360      33.6891    
   1670.51      27.1492      38.9425    
   1697.53      33.6220      38.0218    
   1724.99      37.3082      37.1222    
   1752.89      40.0322      36.2450    
   1781.24      42.2005      35.3891    
   1810.05      43.9919      34.5539    
   1839.32      45.5033      33.7381    
   1869.07      46.7930      32.9417    
   1899.30      47.8986      32.1644    
   1930.02      48.8428      31.4056    
   1961.24      49.6339      30.6649    
   1992.96      50.2505      29.9421    
   2023.50      49.7726      29.2728    
   2023.70      49.7823      29.8668    
   2025.20      50.3349      29.8340    
   2057.95      51.4536      29.1309    
   2091.24      51.9947      28.4444    
   2125.06      52.3492      27.7751    
   2159.43      52.5086      27.1212    
   2194.36      52.3886      26.4838    
   2229.85      51.6716      25.8614    
   2263.40      41.7649      25.2953    
   2263.60      41.7809      31.2651    
   2265.92      47.4270      31.2188    
   2302.57      53.0895      30.5012    
   2339.81      54.8089      29.8010    
   2377.66      55.9543      29.1172    
   2416.11      56.8167      28.4501    
   2455.19      57.5144      27.7995    
   2491.10      58.3502      27.2237    
   2491.30      58.3518      27.1902    
   2494.90      57.7334      27.2302    
   2535.26      58.3627      27.6794    
   2576.26      59.3614      27.0947    
   2617.93      60.0663      26.5195    
   2660.27      60.6685      25.9537    
   2703.30      61.2036      25.3966    
   2747.03      61.6869      24.8491    
   2791.46      62.1281      24.3114    
   2836.61      62.5332      23.7832    
   2882.49      62.9071      23.2646    
   2929.11      63.2528      22.7548    
   2976.48      63.5728      22.2545    
   3024.63      63.8694      21.7633    
   3073.55      64.1447      21.2818    
   3123.26      64.4009      20.8093    
   3173.78      64.6385      20.3450    
   3225.11      64.8594      19.8904    
   3277.27      65.0642      19.4433    
   3330.28      65.2535      19.0058    
   3384.15      65.4294      18.5773    
   3438.88      65.5923      18.1567    
   3494.50      65.7431      17.7444    
   3551.02      65.8814      17.3399    
   3608.46      66.0090      16.9448    
   3666.82      66.1263      16.5564    
   3726.13      66.2340      16.1772    
   3786.40      66.3320      15.8041    
   3847.64      66.4208      15.4399    
   3909.87      66.5016      15.0828    
   3973.11      66.5742      14.7332    
   4037.38      66.6391      14.3909    
   4102.68      66.6967      14.0558    
   4169.03      66.7472      13.7278    
   4236.46      66.7911      13.4067    
   4304.98      66.8286      13.0926    
   4374.62      66.8600      12.7851    
   4445.37      66.8855      12.4842    
   4517.27      66.9055      12.1899    
   4590.33      66.9199      11.9018    
   4664.58      66.9291      11.6202    
   4740.03      66.9333      11.3447    
   4816.69      66.9326      11.0752    
   4894.60      66.9272      10.8117    
   4973.77      66.9174      10.5540    
   5054.21      66.9029      10.3021    
   5135.96      66.8842      10.0558    
   5219.03      66.8613      9.81492    
   5303.44      66.8342      9.57942    
   5389.22      66.8028      9.34921    
   5476.39      66.7675      9.12429    
   5564.97      66.7281      8.90436    
   5654.98      66.6847      8.68944    
   5746.44      66.6372      8.47941    
   5839.39      66.5856      8.27411    
   5933.83      66.5298      8.07350    
   6029.81      66.4699      7.87744    
   6127.33      66.4055      7.68578    
   6226.44      66.3365      7.49854    
   6327.15      66.2630      7.31572    
   6429.48      66.1845      7.13682    
   6533.48      66.1007      6.96224    
   6639.15      66.0115      6.79158    
   6746.54      65.9163      6.62485    
   6855.65      65.8147      6.46193    
   6966.54      65.7061      6.30288    
   7079.22      65.5899      6.14739    
   7193.72      65.4652      5.99556    
   7310.07      65.3312      5.84730    
   7428.31      65.1864      5.70214    
   7548.45      65.0292      5.56064    
   7670.54      64.8581      5.42233    
   7794.61      64.6703      5.28719    
   7920.68      64.4628      5.15507    
   8048.79      64.2312      5.02608    
   8178.98      63.9699      4.90014    
   8311.26      63.6707      4.77710    
   8445.69      63.3212      4.65693    
   8582.29      62.9023      4.53947    
   8721.11      62.3797      4.42456    
   8862.16      61.6870      4.31254    
   9005.50      60.6582      4.20291    
   9151.16      58.6159      4.09594    
   9244.00      43.6076      4.03005    
   9244.20      43.6089      10.9885    
   9299.17      57.5817      10.8681    
   9449.58      60.4875      10.5486    
   9602.42      61.6079      10.2388    
   9757.73      62.2026      9.93831    
   9915.55      62.4764      9.64646    
   10075.9      62.4335      9.36312    
   10238.9      61.7797      9.08811    
   10348.5      53.9601      8.91010    
   10348.7      53.9608      12.5239    
   10404.5      61.3525      12.3978    
   10572.8      63.1231      12.0292    
   10743.8      63.6827      11.6715    
   10870.3      60.9431      11.4173    
   10870.5      60.9436      12.8327    
   10917.6      63.8694      12.7567    
   11094.2      65.0852      12.4786    
   11273.6      65.7922      12.2037    
   11455.9      66.3442      11.9322    
   11641.2      66.8065      11.6642    
   11829.5      67.2065      11.3998    
   12020.8      67.5588      11.1392    
   12215.3      67.8731      10.8825    
   12412.8      68.1557      10.6296    
   12613.6      68.4113      10.3808    
   12817.6      68.6435      10.1361    
   13025.0      68.8553      9.89540    
   13235.6      69.0488      9.65887    
   13449.7      69.2260      9.42651    
   13667.2      69.3884      9.19833    
   13888.3      69.5374      8.97436    
   14112.9      69.6741      8.75458    
   14341.2      69.7997      8.53901    
   14573.1      69.9149      8.32763    
   14808.9      70.0206      8.12043    
   15048.4      70.1174      7.91739    
   15291.8      70.2061      7.71850    
   15539.1      70.2872      7.52372    
   15790.4      70.3612      7.33301    
   16045.8      70.4286      7.14635    
   16305.4      70.4899      6.96370    
   16569.1      70.5454      6.78502    
   16837.1      70.5956      6.61026    
   17109.4      70.6407      6.43937    
   17386.1      70.6811      6.27232    
   17667.4      70.7171      6.10904    
   17953.1      70.7489      5.94949    
   18243.5      70.7768      5.79361    
   18538.6      70.8012      5.64136    
   18838.4      70.8220      5.49266    
   19143.1      70.8397      5.34747    
   19452.7      70.8544      5.20573    
   19767.4      70.8663      5.06738    
   20087.1      70.8755      4.93236    
   20412.0      70.8822      4.80061    
   20742.1      70.8866      4.67207    
   21077.6      70.8888      4.54669    
   21418.5      70.8890      4.42441    
   21765.0      70.8872      4.30515    
   22117.0      70.8836      4.18888    
   22474.7      70.8784      4.07552    
   22838.2      70.8715      3.96502    
   23207.6      70.8632      3.85731    
   23583.0      70.8535      3.75235    
   23964.4      70.8425      3.65007    
   24352.0      70.8303      3.55042    
   24745.9      70.8170      3.45333    
   25146.2      70.8025      3.35876    
   25552.9      70.7871      3.26665    
   25966.2      70.7708      3.17694    
   26386.1      70.7536      3.08957    
   26812.9      70.7356      3.00451    
   27246.6      70.7168      2.92168    
   27687.3      70.6973      2.84105    
   28135.1      70.6772      2.76255    
   28590.2      70.6564      2.68615    
   29052.6      70.6350      2.61178    
   29522.5      70.6131      2.53941    
   30000.0      70.5907      2.46898    
