 os, Z=76, (Energy (eV),f1,f2)
   10.0000     -9999.00      1.88117    
   10.1617     -9999.00      1.93789    
   10.3261     -9999.00      1.99632    
   10.4931     -9999.00      2.05652    
   10.6628     -9999.00      2.13032    
   10.8353     -9999.00      2.20812    
   11.0106     -9999.00      2.28877    
   11.1886     -9999.00      2.37237    
   11.3696     -9999.00      2.45796    
   11.5535     -9999.00      2.53755    
   11.7404     -9999.00      2.61972    
   11.9303     -9999.00      2.70455    
   12.1232     -9999.00      2.79265    
   12.3193     -9999.00      2.88764    
   12.5186     -9999.00      2.98586    
   12.7210     -9999.00      3.08742    
   12.9268     -9999.00      3.18938    
   13.1359     -9999.00      3.27352    
   13.3483     -9999.00      3.35989    
   13.5642     -9999.00      3.44854    
   13.7836     -9999.00      3.53952    
   14.0066     -9999.00      3.63291    
   14.2331     -9999.00      3.72876    
   14.4633     -9999.00      3.85803    
   14.6973     -9999.00      3.99605    
   14.9350     -9999.00      4.13902    
   15.1765     -9999.00      4.28709    
   15.4220     -9999.00      4.44047    
   15.6714     -9999.00      4.59933    
   15.9249     -9999.00      4.74683    
   16.1825     -9999.00      4.88583    
   16.4442     -9999.00      5.02890    
   16.7102     -9999.00      5.17615    
   16.9805     -9999.00      5.32771    
   17.2551     -9999.00      5.48372    
   17.5342     -9999.00      5.64981    
   17.8178     -9999.00      5.82342    
   18.1060     -9999.00      6.00238    
   18.3989     -9999.00      6.18683    
   18.6964     -9999.00      6.37696    
   18.9988     -9999.00      6.57292    
   19.3061     -9999.00      6.77240    
   19.6184     -9999.00      6.93116    
   19.9357     -9999.00      7.09364    
   20.2582     -9999.00      7.25993    
   20.5858     -9999.00      7.43012    
   20.9188     -9999.00      7.60429    
   21.2571     -9999.00      7.78255    
   21.6009     -9999.00      7.90657    
   21.9503     -9999.00      8.03206    
   22.3053     -9999.00      8.15954    
   22.6661     -9999.00      8.28905    
   23.0327     -9999.00      8.42062    
   23.4053     -9999.00      8.54747    
   23.7838     -9999.00      8.61003    
   24.1685     -9999.00      8.67305    
   24.5594     -9999.00      8.73653    
   24.9566     -9999.00      8.80047    
   25.3603     -9999.00      8.80932    
   25.7705     -9999.00      8.77179    
   26.1873     -9999.00      8.73442    
   26.6109     -9999.00      8.69721    
   27.0413     -9999.00      8.66016    
   27.4786     -9999.00      8.61796    
   27.9231     -9999.00      8.52126    
   28.3747     -9999.00      8.42565    
   28.8337     -9999.00      8.33111    
   29.3000      8.30011      8.23764    
   29.7739      8.46473      8.14521    
   30.2555      8.63796      8.05382    
   30.7449      8.82533      7.91400    
   31.2421      8.96486      7.75190    
   31.7475      9.07920      7.59314    
   32.2609      9.17666      7.43762    
   32.7827      9.26315      7.28529    
   33.3130      9.34599      7.13549    
   33.8518      9.41616      6.96557    
   34.3993      9.46870      6.79969    
   34.9557      9.51340      6.63776    
   35.5211      9.55919      6.47969    
   36.0956      9.64713      6.32538    
   36.6794      9.83850      6.01324    
   37.2727      9.81542      5.59144    
   37.8755      9.67760      5.19925    
   38.4882      9.47666      4.80283    
   39.1107      9.16386      4.41435    
   39.7432      8.73078      4.02078    
   40.3861      8.05795      3.81918    
   41.0393      7.47199      3.76150    
   41.7031      6.82659      3.79178    
   42.3776      6.22162      3.90690    
   43.0630      5.52323      4.08295    
   43.7595      4.86151      4.46673    
   44.4673      4.20301      4.95063    
   45.1865      3.63012      5.55802    
   45.9174      3.08782      6.23996    
   46.6600      2.60760      7.11975    
   47.4147      2.25412      8.12406    
   48.1816      2.06738      9.25093    
   48.9609      2.05441      10.4803    
   49.7528      2.36027      11.8200    
   50.5576      2.90469      13.0355    
   51.3753      3.89401      14.3258    
   52.2062      4.99879      14.8253    
   53.0506      6.00564      15.3422    
   53.9087      6.96794      15.6000    
   54.7806      7.87184      15.8485    
   55.6667      8.75760      15.9634    
   56.5670      9.60952      16.0575    
   57.4820      10.5680      16.0828    
   58.4117      11.4106      15.8633    
   59.3564      12.1479      15.6467    
   60.3165      12.9033      15.3642    
   61.2921      13.5281      14.9819    
   62.2834      14.0943      14.6090    
   63.2908      14.6607      14.1379    
   64.3145      15.0549      13.6021    
   65.3547      15.3173      13.0867    
   66.4118      15.4420      12.6485    
   67.4859      15.5892      12.3170    
   68.5775      15.7324      11.9942    
   69.6867      15.8512      11.6799    
   70.8138      15.9181      11.4066    
   71.9591      16.0131      11.1827    
   73.1230      16.1162      10.9631    
   74.3057      16.2191      10.7479    
   75.5076      16.3199      10.5370    
   76.7289      16.4188      10.3301    
   77.9699      16.5184      10.1273    
   79.2310      16.6260      9.92852    
   80.5125      16.7724      9.71818    
   81.8147      16.8780      9.40813    
   83.1380      16.9272      9.10796    
   84.4827      16.9373      8.81738    
   85.8491      16.9185      8.53606    
   87.2377      16.8731      8.26371    
   88.6487      16.8014      8.00007    
   90.0825      16.7015      7.74481    
   91.5395      16.5651      7.49773    
   93.0201      16.3560      7.25851    
   94.5246      16.1386      7.15794    
   96.0535      15.9682      7.07017    
   97.6071      15.8106      6.98347    
   99.1858      15.6520      6.89783    
   100.790      15.4792      6.81324    
   102.420      15.2626      6.76245    
   104.077      15.0766      6.75365    
   105.760      14.9056      6.74487    
   107.471      14.7268      6.73610    
   109.209      14.5069      6.74813    
   110.975      14.3123      6.81111    
   112.770      14.1356      6.87469    
   114.594      13.9525      6.93885    
   116.448      13.7175      7.03657    
   118.331      13.5297      7.19876    
   120.245      13.3782      7.36469    
   122.190      13.2424      7.53445    
   124.166      13.1186      7.70811    
   126.175      13.0038      7.88579    
   128.215      12.8957      8.06755    
   130.289      12.7909      8.25351    
   132.397      12.6765      8.44814    
   134.538      12.5765      8.67514    
   136.714      12.4952      8.90823    
   138.925      12.4261      9.14759    
   141.172      12.3679      9.39337    
   143.456      12.3202      9.64577    
   145.776      12.2829      9.90494    
   148.134      12.2565      10.1711    
   150.530      12.2430      10.4429    
   152.964      12.2391      10.7194    
   155.439      12.2460      11.0033    
   157.953      12.2663      11.2948    
   160.507      12.3030      11.5939    
   163.103      12.3660      11.9010    
   165.742      12.4462      12.1821    
   168.422      12.5275      12.4636    
   171.146      12.6160      12.7517    
   173.915      12.7232      13.0464    
   176.727      12.8916      13.3202    
   179.586      13.0304      13.5421    
   182.491      13.1451      13.7676    
   185.442      13.2550      13.9969    
   188.442      13.3624      14.2300    
   191.489      13.4688      14.4669    
   194.587      13.5748      14.7079    
   197.734      13.6804      14.9528    
   200.932      13.7788      15.2018    
   204.182      13.8823      15.4751    
   207.485      13.9983      15.7545    
   210.840      14.1236      16.0389    
   214.251      14.2570      16.3284    
   217.716      14.3986      16.6232    
   221.237      14.5407      16.9233    
   224.816      14.7054      17.2553    
   228.452      14.9089      17.5676    
   232.147      15.1102      17.8649    
   235.902      15.3106      18.1672    
   239.717      15.5196      18.4746    
   243.595      15.7390      18.7872    
   247.535      15.9710      19.1051    
   251.538      16.2179      19.4284    
   255.607      16.4834      19.7572    
   259.741      16.7801      20.0915    
   263.942      17.0982      20.4037    
   268.211      17.4288      20.7152    
   272.549      17.7918      21.0315    
   276.957      18.2271      21.3000    
   281.437      18.6435      21.5050    
   285.989      19.0271      21.6704    
   290.615      19.3876      21.8307    
   295.315      19.7315      21.9916    
   300.092      20.0676      22.1539    
   304.945      20.3990      22.3176    
   309.878      20.7284      22.4830    
   314.890      21.0571      22.6491    
   319.983      21.3858      22.8164    
   325.158      21.7164      22.9854    
   330.418      22.0494      23.1549    
   335.762      22.3852      23.3258    
   341.192      22.7253      23.4983    
   346.711      23.0711      23.6723    
   352.319      23.4238      23.8475    
   358.017      23.7841      24.0236    
   363.808      24.1542      24.2013    
   369.692      24.5368      24.3804    
   375.672      24.9355      24.5606    
   381.748      25.3583      24.7422    
   387.922      25.8224      24.9123    
   394.197      26.3422      25.0548    
   400.573      26.8700      25.0755    
   407.052      27.3217      25.0477    
   413.635      27.7278      25.0203    
   420.326      28.1038      24.9933    
   427.124      28.4540      24.9664    
   434.032      28.7764      24.9384    
   441.052      29.0680      24.9111    
   448.186      29.2623      24.9046    
   455.435      29.4579      25.0013    
   462.802      29.6805      25.1714    
   470.287      29.9620      25.3824    
   477.894      30.3002      25.5955    
   485.623      30.6740      25.8094    
   493.478      31.0818      26.0249    
   501.459      31.5292      26.2435    
   509.570      32.0271      26.4632    
   517.812      32.6164      26.6627    
   526.187      33.2724      26.7855    
   534.698      33.9416      26.7616    
   543.346      34.5211      26.6647    
   552.134      35.0551      26.5680    
   561.065      35.5655      26.4551    
   570.139      36.0567      26.3319    
   579.361      36.5170      26.1883    
   588.732      36.9502      26.0406    
   598.254      37.3561      25.8907    
   607.930      37.7365      25.7416    
   617.763      38.0871      25.5935    
   627.755      38.3808      25.4527    
   637.908      38.6309      25.3914    
   648.226      38.8914      25.4475    
   658.711      39.2793      25.5818    
   669.365      39.8099      25.7167    
   680.191      40.4717      25.6782    
   691.193      41.0949      25.5018    
   702.372      41.6194      25.2659    
   713.733      42.0997      25.0169    
   725.277      42.5374      24.7597    
   737.008      42.9464      24.5053    
   748.928      43.3352      24.2534    
   761.042      43.7102      24.0036    
   773.351      44.0779      23.7521    
   785.859      44.4360      23.4881    
   798.570      44.7705      23.2146    
   811.486      45.0867      22.9443    
   824.611      45.3897      22.6769    
   837.949      45.6840      22.4124    
   851.502      45.9705      22.1443    
   865.274      46.2476      21.8718    
   879.269      46.5087      21.5959    
   893.491      46.7574      21.3232    
   907.943      46.9980      21.0538    
   922.628      47.2384      20.7875    
   937.551      47.4686      20.5020    
   952.715      47.6838      20.2146    
   968.124      47.8814      19.9261    
   983.783      48.0660      19.6414    
   999.695      48.2416      19.3586    
   1015.86      48.4119      19.0776    
   1032.29      48.5690      18.7836    
   1048.99      48.7106      18.4894    
   1065.96      48.8334      18.1949    
   1083.20      48.9403      17.9048    
   1100.72      49.0335      17.6191    
   1118.52      49.1139      17.3378    
   1136.61      49.1818      17.0603    
   1155.00      49.2376      16.7870    
   1173.68      49.2815      16.5179    
   1192.66      49.3138      16.2529    
   1211.95      49.3351      15.9918    
   1231.55      49.3459      15.7343    
   1251.47      49.3460      15.4774    
   1271.72      49.3340      15.2204    
   1292.29      49.3043      14.9624    
   1313.19      49.2572      14.7084    
   1334.43      49.1935      14.4584    
   1356.01      49.1130      14.2123    
   1377.94      49.0148      13.9700    
   1400.23      48.8981      13.7317    
   1422.88      48.7623      13.4974    
   1445.89      48.6059      13.2663    
   1469.28      48.4273      13.0384    
   1493.04      48.2251      12.8136    
   1517.19      47.9942      12.5879    
   1541.73      47.7305      12.3656    
   1566.67      47.4309      12.1471    
   1592.01      47.0914      11.9319    
   1617.76      46.7060      11.7204    
   1643.92      46.2680      11.5126    
   1670.51      45.7678      11.3081    
   1697.53      45.1931      11.1069    
   1724.99      44.5300      10.9091    
   1752.89      43.7514      10.7088    
   1781.24      42.8208      10.5100    
   1810.05      41.6859      10.3130    
   1839.32      40.2606      10.1196    
   1869.07      38.3881      9.92978    
   1899.30      35.7236      9.74376    
   1930.02      31.1911      9.56069    
   1960.00     -1.98025      9.38809    
   1960.20     -1.98254      27.2515    
   1961.24      11.8393      27.2332    
   1992.96      29.2638      26.6867    
   2025.20      26.2824      26.1511    
   2030.70      11.3960      26.0616    
   2030.90      11.4284      38.2496    
   2057.95      35.3998      37.5516    
   2091.24      40.5370      36.7223    
   2125.06      43.8181      35.9116    
   2159.43      46.2639      35.1185    
   2194.36      48.1990      34.3429    
   2229.85      49.7737      33.5850    
   2265.92      51.0658      32.8439    
   2302.57      52.1137      32.1200    
   2339.81      52.9230      31.4120    
   2377.66      53.4462      30.7196    
   2416.11      53.4741      30.0439    
   2455.19      49.8736      29.3835    
   2457.10      45.4669      29.3519    
   2457.30      45.4811      34.0900    
   2494.90      55.2587      33.3130    
   2535.26      57.1055      32.5112    
   2576.26      58.3803      31.7290    
   2617.93      59.3702      30.9661    
   2660.27      60.1587      30.2234    
   2703.30      60.7601      29.4980    
   2747.03      61.1059      28.7916    
   2791.46      59.4194      28.1032    
   2792.10      58.3216      28.0934    
   2792.30      58.3305      29.8666    
   2836.61      62.3282      29.1908    
   2882.49      63.2281      28.5177    
   2929.11      63.8798      27.8603    
   2976.48      64.3562      27.2200    
   3024.63      64.5395      26.5947    
   3048.40      62.7987      26.2948    
   3048.60      62.8009      27.4437    
   3073.55      65.0879      27.1357    
   3123.26      65.9748      26.5392    
   3173.78      66.6126      25.9541    
   3225.11      67.1525      25.3787    
   3277.27      67.6292      24.8139    
   3330.28      68.0594      24.2603    
   3384.15      68.4519      23.7169    
   3438.88      68.8114      23.1832    
   3494.50      69.1422      22.6601    
   3551.02      69.4469      22.1465    
   3608.46      69.7283      21.6442    
   3666.82      69.9891      21.1514    
   3726.13      70.2302      20.6681    
   3786.40      70.4535      20.1946    
   3847.64      70.6594      19.7302    
   3909.87      70.8496      19.2760    
   3973.11      71.0260      18.8312    
   4037.38      71.1891      18.3950    
   4102.68      71.3384      17.9671    
   4169.03      71.4754      17.5490    
   4236.46      71.6016      17.1396    
   4304.98      71.7170      16.7386    
   4374.62      71.8221      16.3462    
   4445.37      71.9177      15.9619    
   4517.27      72.0041      15.5860    
   4590.33      72.0820      15.2181    
   4664.58      72.1516      14.8581    
   4740.03      72.2135      14.5059    
   4816.69      72.2680      14.1613    
   4894.60      72.3154      13.8242    
   4973.77      72.3561      13.4946    
   5054.21      72.3904      13.1722    
   5135.96      72.4186      12.8569    
   5219.03      72.4410      12.5487    
   5303.44      72.4578      12.2473    
   5389.22      72.4693      11.9526    
   5476.39      72.4755      11.6646    
   5564.97      72.4770      11.3831    
   5654.98      72.4737      11.1078    
   5746.44      72.4657      10.8389    
   5839.39      72.4532      10.5760    
   5933.83      72.4365      10.3192    
   6029.81      72.4157      10.0684    
   6127.33      72.3908      9.82320    
   6226.44      72.3619      9.58373    
   6327.15      72.3292      9.34973    
   6429.48      72.2926      9.12121    
   6533.48      72.2523      8.89782    
   6639.15      72.2081      8.67966    
   6746.54      72.1601      8.46669    
   6855.65      72.1084      8.25845    
   6966.54      72.0527      8.05531    
   7079.22      71.9933      7.85688    
   7193.72      71.9300      7.66294    
   7310.07      71.8623      7.47358    
   7428.31      71.7905      7.28887    
   7548.45      71.7143      7.10827    
   7670.54      71.6335      6.93217    
   7794.61      71.5477      6.76002    
   7920.68      71.4567      6.59216    
   8048.79      71.3601      6.42788    
   8178.98      71.2571      6.26762    
   8311.26      71.1475      6.11119    
   8445.69      71.0303      5.95852    
   8582.29      70.9049      5.80942    
   8721.11      70.7702      5.66397    
   8862.16      70.6248      5.52170    
   9005.50      70.4669      5.38297    
   9151.16      70.2946      5.24744    
   9299.17      70.1052      5.11523    
   9449.58      69.8950      4.98608    
   9602.42      69.6592      4.86006    
   9757.73      69.3909      4.73670    
   9915.55      69.0803      4.61647    
   10075.9      68.7099      4.49461    
   10238.9      68.2477      4.37581    
   10404.5      67.6403      4.25999    
   10572.8      66.7528      4.14707    
   10743.8      65.0731      4.03701    
   10870.8      50.7973      3.95824    
   10871.0      50.7979      10.2630    
   10917.6      63.1798      10.1836    
   11094.2      66.3357      9.89108    
   11273.6      67.4493      9.60696    
   11455.9      68.0632      9.33101    
   11641.2      68.4090      9.06299    
   11829.5      68.5474      8.80266    
   12020.8      68.4566      8.54982    
   12215.3      67.9632      8.30424    
   12384.9      60.6457      8.09878    
   12385.1      60.6470      11.3583    
   12412.8      66.3113      11.3152    
   12613.6      68.5697      11.0114    
   12817.6      69.0675      10.7157    
   12967.9      65.8850      10.5059    
   12968.1      65.8856      12.0780    
   13025.0      69.2207      11.9986    
   13235.6      70.4931      11.7120    
   13449.7      71.1982      11.4307    
   13667.2      71.7342      11.1548    
   13888.3      72.1746      10.8842    
   14112.9      72.5498      10.6189    
   14341.2      72.8763      10.3589    
   14573.1      73.1641      10.1041    
   14808.9      73.4204      9.85458    
   15048.4      73.6500      9.61021    
   15291.8      73.8568      9.37098    
   15539.1      74.0438      9.13682    
   15790.4      74.2132      8.90768    
   16045.8      74.3671      8.68351    
   16305.4      74.5071      8.46424    
   16569.1      74.6345      8.24981    
   16837.1      74.7505      8.04015    
   17109.4      74.8562      7.83521    
   17386.1      74.9524      7.63491    
   17667.4      75.0399      7.43917    
   17953.1      75.1195      7.24794    
   18243.5      75.1917      7.06114    
   18538.6      75.2571      6.87869    
   18838.4      75.3163      6.70052    
   19143.1      75.3696      6.52656    
   19452.7      75.4174      6.35673    
   19767.4      75.4603      6.19095    
   20087.1      75.4985      6.02916    
   20412.0      75.5324      5.87127    
   20742.1      75.5622      5.71723    
   21077.6      75.5882      5.56693    
   21418.5      75.6107      5.42032    
   21765.0      75.6299      5.27731    
   22117.0      75.6460      5.13785    
   22474.7      75.6593      5.00185    
   22838.2      75.6699      4.86923    
   23207.6      75.6780      4.73994    
   23583.0      75.6837      4.61389    
   23964.4      75.6873      4.49102    
   24352.0      75.6888      4.37126    
   24745.9      75.6884      4.25454    
   25146.2      75.6863      4.14079    
   25552.9      75.6825      4.02994    
   25966.2      75.6771      3.92194    
   26386.1      75.6703      3.81671    
   26812.9      75.6621      3.71419    
   27246.6      75.6527      3.61431    
   27687.3      75.6421      3.51703    
   28135.1      75.6305      3.42226    
   28590.2      75.6179      3.32997    
   29052.6      75.6050      3.24008    
   29522.5      75.5995      3.15253    
   30000.0      75.5481      3.06728    
