 pa, Z=91, (Energy (eV),f1,f2)
   10.0000     -9999.00      1.75788    
   10.1617     -9999.00      1.76101    
   10.3261     -9999.00      1.76414    
   10.4931     -9999.00      1.76728    
   10.6628     -9999.00      1.73466    
   10.8353     -9999.00      1.69295    
   11.0106     -9999.00      1.65224    
   11.1886     -9999.00      1.61457    
   11.3696     -9999.00      1.58512    
   11.5535     -9999.00      1.55620    
   11.7404     -9999.00      1.52780    
   11.9303     -9999.00      1.49993    
   12.1232     -9999.00      1.47256    
   12.3193     -9999.00      1.44569    
   12.5186     -9999.00      1.41932    
   12.7210     -9999.00      1.39337    
   12.9268     -9999.00      1.36694    
   13.1359     -9999.00      1.34101    
   13.3483     -9999.00      1.31557    
   13.5642     -9999.00      1.29062    
   13.7836     -9999.00      1.26613    
   14.0066     -9999.00      1.24212    
   14.2331     -9999.00      1.21856    
   14.4633     -9999.00      1.19751    
   14.6973     -9999.00      1.17807    
   14.9350     -9999.00      1.15894    
   15.1765     -9999.00      1.14013    
   15.4220     -9999.00      1.12162    
   15.6714     -9999.00      1.10769    
   15.9249     -9999.00      1.10134    
   16.1825     -9999.00      1.09502    
   16.4442     -9999.00      1.10166    
   16.7102     -9999.00      1.12178    
   16.9805     -9999.00      1.16065    
   17.2551     -9999.00      1.23959    
   17.5342     -9999.00      1.46231    
   17.8178     -9999.00      1.77156    
   18.1060     -9999.00      2.14619    
   18.3989     -9999.00      2.55993    
   18.6964     -9999.00      2.86887    
   18.9988     -9999.00      3.21508    
   19.3061     -9999.00      3.60308    
   19.6184     -9999.00      3.95479    
   19.9357     -9999.00      4.21245    
   20.2582     -9999.00      4.48692    
   20.5858     -9999.00      4.77925    
   20.9188     -9999.00      5.09063    
   21.2571     -9999.00      5.39216    
   21.6009     -9999.00      5.68568    
   21.9503     -9999.00      5.99517    
   22.3053     -9999.00      6.32151    
   22.6661     -9999.00      6.66561    
   23.0327     -9999.00      7.02845    
   23.4053     -9999.00      7.39578    
   23.7838     -9999.00      7.75707    
   24.1685     -9999.00      8.13601    
   24.5594     -9999.00      8.53346    
   24.9566     -9999.00      8.95032    
   25.3603     -9999.00      9.38755    
   25.7705     -9999.00      9.78338    
   26.1873     -9999.00      10.1541    
   26.6109     -9999.00      10.5389    
   27.0413     -9999.00      10.9382    
   27.4786     -9999.00      11.3527    
   27.9231     -9999.00      11.7828    
   28.3747     -9999.00      12.0963    
   28.8337     -9999.00      12.3524    
   29.3000      5.69681      12.6139    
   29.7739      6.06336      12.8809    
   30.2555      6.44653      13.1535    
   30.7449      6.86048      13.4320    
   31.2421      7.33106      13.7163    
   31.7475      7.87932      13.8995    
   32.2609      8.36798      14.0259    
   32.7827      8.84589      14.1536    
   33.3130      9.33515      14.2824    
   33.8518      9.85791      14.4123    
   34.3993      10.4555      14.5435    
   34.9557      11.1828      14.4993    
   35.5211      11.7980      14.3241    
   36.0956      12.3177      14.0694    
   36.6794      12.7570      13.8192    
   37.2727      13.1475      13.5734    
   37.8755      13.5017      13.3320    
   38.4882      13.8272      13.0949    
   39.1107      14.1290      12.8621    
   39.7432      14.4111      12.6333    
   40.3861      14.6772      12.4097    
   41.0393      14.9324      12.1904    
   41.7031      15.1810      11.9750    
   42.3776      15.4383      11.7635    
   43.0630      15.7411      11.5211    
   43.7595      15.9750      11.1833    
   44.4673      16.1362      10.8554    
   45.1865      16.2354      10.5372    
   45.9174      16.3150      10.3105    
   46.6600      16.4150      10.0903    
   47.4147      16.5258      9.87476    
   48.1816      16.6493      9.64493    
   48.9609      16.7514      9.40358    
   49.7528      16.8462      9.16827    
   50.5576      16.9490      8.93884    
   51.3753      17.1020      8.67122    
   52.2062      17.1733      8.29968    
   53.0506      17.1593      7.94407    
   53.9087      17.0934      7.65749    
   54.7806      17.0364      7.39714    
   55.6667      16.9783      7.14563    
   56.5670      16.9180      6.90269    
   57.4820      16.8733      6.65806    
   58.4117      16.7944      6.36509    
   59.3564      16.6730      6.08500    
   60.3165      16.5241      5.81735    
   61.2921      16.3535      5.56366    
   62.2834      16.1646      5.32105    
   63.2908      15.9611      5.08742    
   64.3145      15.7353      4.85534    
   65.3547      15.4867      4.63386    
   66.4118      15.2199      4.41995    
   67.4859      14.9263      4.20854    
   68.5775      14.6049      4.00724    
   69.6867      14.2548      3.81873    
   70.8138      13.8808      3.64163    
   71.9591      13.4796      3.47273    
   73.1230      13.0481      3.31138    
   74.3057      12.5795      3.15347    
   75.5076      12.0659      3.00310    
   76.7289      11.4926      2.86924    
   77.9699      10.8788      2.75745    
   79.2310      10.2028      2.65084    
   80.5125      9.46612      2.57996    
   81.8147      8.65612      2.51098    
   83.1380      7.75103      2.46452    
   84.4827      6.71093      2.43997    
   85.8491      5.54216      2.44792    
   87.2377      4.17601      2.47442    
   88.6487      2.47095      2.52226    
   90.0825     0.242954      2.69166    
   91.5395     -3.03708      3.19078    
   93.0201     -7.30723      6.66410    
   94.5246     -9.19053      12.1025    
   96.0535     -8.64618      19.4572    
   97.6071      3.74738      21.5624    
   99.1858      1.90889      13.0480    
   100.790     -2.80788      10.7145    
   102.420     -11.0462      9.98412    
   104.077     -19.2765      15.6696    
   105.760     -27.0710      24.5923    
   107.471     -34.3952      41.0199    
   109.209     -25.9329      72.5933    
   110.975      1.04438      82.1200    
   112.770      28.6279      77.2142    
   114.594      40.5394      59.8823    
   116.448      41.3985      49.6453    
   118.331      42.2590      43.3427    
   120.245      43.0836      37.8400    
   122.190      43.0491      33.0361    
   124.166      41.8547      28.8420    
   126.175      40.5733      26.8644    
   128.215      40.0477      25.2383    
   130.289      39.7590      23.7107    
   132.397      39.5516      22.2755    
   134.538      39.3685      20.9272    
   136.714      39.1850      19.6605    
   138.925      38.9883      18.4704    
   141.172      38.7730      17.3524    
   143.456      38.5356      16.3021    
   145.776      38.2740      15.3154    
   148.134      37.9791      14.3889    
   150.530      37.6734      13.5541    
   152.964      37.3640      12.7678    
   155.439      37.0452      12.0272    
   157.953      36.7105      11.3295    
   160.507      36.3528      10.6722    
   163.103      35.9425      10.0531    
   165.742      35.5131      9.60267    
   168.422      35.1834      9.21813    
   171.146      34.8897      8.78432    
   173.915      34.5787      8.37254    
   176.727      34.2621      7.99889    
   179.586      33.9222      7.64191    
   182.491      33.6117      7.40175    
   185.442      33.3673      7.17319    
   188.442      33.1999      6.89638    
   191.489      32.9934      6.57284    
   194.587      32.7560      6.24973    
   197.734      32.4825      5.93075    
   200.932      32.1569      5.66383    
   204.182      31.8602      5.45172    
   207.485      31.5719      5.25357    
   210.840      31.3137      5.09675    
   214.251      31.1134      4.94462    
   217.716      30.9732      4.69581    
   221.237      30.6429      4.37115    
   224.816      30.3032      4.20355    
   228.452      30.0013      4.04239    
   232.147      29.7017      3.88411    
   235.902      29.3938      3.73021    
   239.717      29.0677      3.58957    
   243.595      28.7422      3.46910    
   247.535      28.4061      3.35267    
   251.538      28.0407      3.26395    
   255.607      27.6860      3.20531    
   259.741      27.3044      3.15900    
   263.942      26.9465      3.17519    
   268.211      26.6171      3.19146    
   272.549      26.2917      3.20908    
   276.957      25.9733      3.23796    
   281.437      25.6594      3.26710    
   285.989      25.3436      3.29727    
   290.615      25.0250      3.32995    
   295.315      24.6992      3.36295    
   300.092      24.3556      3.39628    
   304.945      24.0017      3.45841    
   309.878      23.6491      3.52754    
   314.890      23.2929      3.59805    
   319.983      22.9252      3.67020    
   325.158      22.5417      3.74415    
   330.418      22.1362      3.81958    
   335.762      21.6944      3.90448    
   341.192      21.2287      4.00542    
   346.711      20.7114      4.10898    
   352.319      20.1471      4.26868    
   358.017      19.5126      4.45693    
   363.808      18.8611      4.79612    
   369.692      18.2957      5.17279    
   375.672      17.7026      5.51844    
   381.748      16.9494      5.89683    
   387.922      16.2422      6.55048    
   394.197      15.6382      7.20718    
   400.573      15.0693      7.89955    
   407.052      14.4629      8.56930    
   413.635      13.7260      9.33297    
   420.326      12.9539      10.4147    
   427.124      12.6306      11.9210    
   434.032      12.4540      12.9305    
   441.052      12.2392      14.0254    
   448.186      12.0270      15.2127    
   455.435      11.8629      16.5401    
   462.802      12.1325      18.0811    
   470.287      12.5808      19.1598    
   477.894      12.8805      20.1442    
   485.623      13.1479      21.1791    
   493.478      13.4455      22.2675    
   501.459      13.8120      23.4122    
   509.570      14.4357      24.5780    
   517.812      15.0639      25.5104    
   526.187      15.6604      26.4782    
   534.698      16.3992      27.4600    
   543.346      17.1328      28.2504    
   552.134      17.8555      29.0635    
   561.065      18.6741      29.9001    
   570.139      19.6137      30.5966    
   579.361      20.4641      31.1335    
   588.732      21.2683      31.6799    
   598.254      22.1286      32.2358    
   607.930      23.0583      32.6637    
   617.763      23.8708      32.9446    
   627.755      24.5940      33.2278    
   637.908      25.2960      33.5136    
   648.226      25.9221      33.7184    
   658.711      26.4054      33.9113    
   669.365      26.6159      34.1053    
   680.191      26.6210      34.9189    
   691.193      27.0026      36.1366    
   702.372      27.9761      37.3524    
   713.733      29.1282      38.3799    
   725.277      30.8761      39.4357    
   737.008      32.6412      39.5144    
   748.928      34.0070      39.4660    
   761.042      35.2190      39.4131    
   773.351      36.3610      39.3602    
   785.859      37.5192      39.3073    
   798.570      38.6119      39.0733    
   811.486      39.6036      38.8279    
   824.611      40.5186      38.5841    
   837.949      41.3905      38.3455    
   851.502      42.2397      38.1101    
   865.274      43.1196      37.8728    
   879.269      43.9249      37.4780    
   893.491      44.6174      37.0873    
   907.943      45.2164      36.7603    
   922.628      45.8050      36.4864    
   937.551      46.3959      36.2145    
   952.715      46.9683      35.9447    
   968.124      47.5162      35.6691    
   983.783      48.0434      35.3949    
   999.695      48.4276      35.1227    
   1015.86      49.0123      35.1464    
   1032.29      49.5467      34.7117    
   1048.99      49.8807      34.4394    
   1065.96      50.2608      34.3457    
   1083.20      50.7013      34.2519    
   1100.72      51.1666      34.1579    
   1118.52      51.6478      34.0637    
   1136.61      52.1415      33.9690    
   1155.00      52.6469      33.8742    
   1173.68      53.1647      33.7791    
   1192.66      53.6968      33.6836    
   1211.95      54.2485      33.5880    
   1231.55      54.8376      33.4922    
   1251.47      55.4628      33.3448    
   1271.72      56.1059      33.1416    
   1292.29      56.6971      32.8705    
   1313.19      57.2487      32.6007    
   1334.43      57.7802      32.3328    
   1356.01      58.2996      32.0666    
   1377.94      58.8114      31.8012    
   1400.23      59.3204      31.5377    
   1422.88      59.8332      31.2761    
   1445.89      60.3601      31.0153    
   1469.28      60.9214      30.7334    
   1493.04      61.5235      30.4193    
   1517.19      62.0832      29.9644    
   1541.73      62.5695      29.4961    
   1566.67      62.9986      29.0343    
   1592.01      63.3939      28.5788    
   1617.76      63.7618      28.1299    
   1643.92      64.1065      27.6872    
   1670.51      64.4314      27.2509    
   1697.53      64.7393      26.8208    
   1724.99      65.0439      26.3965    
   1752.89      65.3319      25.9550    
   1781.24      65.5942      25.5126    
   1810.05      65.8330      25.0712    
   1839.32      66.0490      24.6363    
   1869.07      66.2469      24.2085    
   1899.30      66.4282      23.7876    
   1930.02      66.5939      23.3733    
   1961.24      66.7448      22.9660    
   1992.96      66.8779      22.5654    
   2025.20      67.0164      22.1842    
   2057.95      67.1448      21.7807    
   2091.24      67.2484      21.3801    
   2125.06      67.3347      20.9837    
   2159.43      67.4049      20.5917    
   2194.36      67.4591      20.2030    
   2229.85      67.4964      19.8179    
   2265.92      67.5165      19.4367    
   2302.57      67.5185      19.0599    
   2339.81      67.5035      18.6882    
   2377.66      67.4701      18.3196    
   2416.11      67.4171      17.9556    
   2455.19      67.3438      17.5957    
   2494.90      67.2495      17.2406    
   2535.26      67.1322      16.8891    
   2576.26      66.9906      16.5425    
   2617.93      66.8230      16.2004    
   2660.27      66.6270      15.8625    
   2703.30      66.3995      15.5286    
   2747.03      66.1373      15.1994    
   2791.46      65.8361      14.8744    
   2836.61      65.4907      14.5542    
   2882.49      65.0949      14.2380    
   2929.11      64.6398      13.9263    
   2976.48      64.1144      13.6190    
   3024.63      63.5040      13.3162    
   3073.55      62.7883      13.0175    
   3123.26      61.9371      12.7228    
   3173.78      60.9056      12.4326    
   3225.11      59.6206      12.1468    
   3277.27      57.9495      11.8649    
   3330.28      55.6072      11.5869    
   3384.15      51.7403      11.3130    
   3438.88      35.5703      11.0445    
   3441.70      17.8608      11.0309    
   3441.90      17.8638      27.5264    
   3494.50      49.8414      26.8431    
   3551.02      51.3518      26.1388    
   3608.46      40.7739      25.4538    
   3611.10      26.5659      25.4230    
   3611.30      26.5766      39.0237    
   3666.82      55.9203      38.0491    
   3726.13      60.5736      37.0506    
   3786.40      63.5618      36.0796    
   3847.64      65.7663      35.1362    
   3909.87      67.4736      34.2195    
   3973.11      68.8043      33.3285    
   4037.38      69.7893      32.4616    
   4102.68      70.3285      31.6203    
   4169.03      68.6896      30.8033    
   4173.70      64.9312      30.7471    
   4173.90      64.9340      33.8557    
   4236.46      72.1577      33.1241    
   4304.98      73.7076      32.3528    
   4374.62      74.8572      31.5984    
   4445.37      75.8039      30.8637    
   4517.27      76.6113      30.1450    
   4590.33      77.3072      29.4446    
   4664.58      77.9073      28.7613    
   4740.03      78.4149      28.0937    
   4816.69      78.8211      27.4418    
   4894.60      79.0828      26.8041    
   4973.77      78.9275      26.1816    
   5000.80      76.5532      25.9746    
   5001.00      76.5542      27.3857    
   5054.21      79.6418      26.9834    
   5135.96      80.4144      26.3848    
   5219.03      80.9160      25.7996    
   5303.44      81.3681      25.2272    
   5366.80      80.1518      24.8117    
   5367.00      80.1579      25.7340    
   5389.22      81.4111      25.5858    
   5476.39      82.2860      25.0184    
   5564.97      82.8540      24.4608    
   5654.98      83.3264      23.9115    
   5746.44      83.7406      23.3701    
   5839.39      84.1117      22.8376    
   5933.83      84.4479      22.3138    
   6029.81      84.7545      21.7986    
   6127.33      85.0347      21.2924    
   6226.44      85.2914      20.7948    
   6327.15      85.5265      20.3064    
   6429.48      85.7422      19.8272    
   6533.48      85.9398      19.3567    
   6639.15      86.1207      18.8953    
   6746.54      86.2858      18.4428    
   6855.65      86.4363      17.9995    
   6966.54      86.5732      17.5648    
   7079.22      86.6970      17.1393    
   7193.72      86.8089      16.7224    
   7310.07      86.9094      16.3145    
   7428.31      86.9993      15.9150    
   7548.45      87.0788      15.5243    
   7670.54      87.1490      15.1423    
   7794.61      87.2104      14.7685    
   7920.68      87.2631      14.4029    
   8048.79      87.3078      14.0459    
   8178.98      87.3450      13.6967    
   8311.26      87.3751      13.3558    
   8445.69      87.3987      13.0226    
   8582.29      87.4159      12.6972    
   8721.11      87.4273      12.3797    
   8862.16      87.4335      12.0697    
   9005.50      87.4346      11.7668    
   9151.16      87.4313      11.4715    
   9299.17      87.4242      11.1832    
   9449.58      87.4138      10.9018    
   9602.42      87.4016      10.6279    
   9757.73      87.3887      10.3603    
   9915.55      87.3964      10.0994    
   10075.9      87.4019      9.79338    
   10238.9      87.3583      9.49798    
   10404.5      87.3044      9.21309    
   10572.8      87.2389      8.93854    
   10743.8      87.1637      8.67422    
   10917.6      87.0799      8.41993    
   11094.2      86.9884      8.17552    
   11273.6      86.8899      7.94082    
   11455.9      86.7850      7.71565    
   11641.2      86.6739      7.49983    
   11829.5      86.5570      7.29317    
   12020.8      86.4345      7.09550    
   12215.3      86.3065      6.90661    
   12412.8      86.1729      6.72632    
   12613.6      86.0337      6.55443    
   12817.6      85.8887      6.39075    
   13025.0      85.7374      6.23509    
   13235.6      85.5795      6.08725    
   13449.7      85.4142      5.94705    
   13667.2      85.2404      5.81427    
   13888.3      85.0571      5.68875    
   14112.9      84.8624      5.57027    
   14341.2      84.6540      5.45866    
   14573.1      84.4287      5.35372    
   14808.9      84.1821      5.25528    
   15048.4      83.9075      5.16314    
   15291.8      83.5949      5.07712    
   15539.1      83.2281      4.99704    
   15790.4      82.7785      4.92273    
   16045.8      82.1879      4.85401    
   16305.4      81.3094      4.79070    
   16569.1      79.5209      4.73264    
   16733.0      65.0377      4.69737    
   16733.2      65.0383      10.8982    
   16837.1      78.8509      10.7825    
   17109.4      81.4888      10.4883    
   17386.1      82.6011      10.2021    
   17667.4      83.2849      9.92377    
   17953.1      83.7492      9.65301    
   18243.5      84.0704      9.38963    
   18538.6      84.2820      9.13346    
   18838.4      84.3970      8.88427    
   19143.1      84.4130      8.64189    
   19452.7      84.3077      8.40613    
   19767.4      84.0113      8.17681    
   20087.1      83.2474      7.95375    
   20313.6      75.5413      7.80148    
   20313.8      75.5420      11.0231    
   20412.0      82.4780      10.9443    
   20742.1      83.9576      10.6860    
   21077.6      83.6331      10.4337    
   21104.5      81.7519      10.4139    
   21104.7      81.7530      11.7091    
   21418.5      85.1984      11.4720    
   21765.0      85.9308      11.2198    
   22117.0      86.4627      10.9707    
   22474.7      86.8928      10.7249    
   22838.2      87.2567      10.4824    
   23207.6      87.5725      10.2433    
   23583.0      87.8510      10.0078    
   23964.4      88.0993      9.77588    
   24352.0      88.3224      9.54764    
   24745.9      88.5239      9.32313    
   25146.2      88.7068      9.10238    
   25552.9      88.8731      8.88544    
   25966.2      89.0248      8.67233    
   26386.1      89.1633      8.46306    
   26812.9      89.2899      8.25765    
   27246.6      89.4057      8.05611    
   27687.3      89.5117      7.85843    
   28135.1      89.6086      7.66460    
   28590.2      89.6975      7.47463    
   29052.6      89.7798      7.28848    
   29522.5      89.8730      7.10613    
   30000.0      89.8623      6.92757    
