 pb, Z=82, (Energy (eV),f1,f2)
   10.0000     -9999.00      4.66990    
   10.1617     -9999.00      4.72735    
   10.3261     -9999.00      4.78551    
   10.4931     -9999.00      4.84439    
   10.6628     -9999.00      4.83957    
   10.8353     -9999.00      4.83203    
   11.0106     -9999.00      4.82451    
   11.1886     -9999.00      4.81700    
   11.3696     -9999.00      4.78890    
   11.5535     -9999.00      4.75960    
   11.7404     -9999.00      4.73047    
   11.9303     -9999.00      4.70302    
   12.1232     -9999.00      4.68370    
   12.3193     -9999.00      4.66446    
   12.5186     -9999.00      4.64530    
   12.7210     -9999.00      4.62536    
   12.9268     -9999.00      4.44257    
   13.1359     -9999.00      4.26699    
   13.3483     -9999.00      4.09837    
   13.5642     -9999.00      3.88200    
   13.7836     -9999.00      3.63921    
   14.0066     -9999.00      3.41159    
   14.2331     -9999.00      3.17766    
   14.4633     -9999.00      2.94365    
   14.6973     -9999.00      2.72688    
   14.9350     -9999.00      2.47076    
   15.1765     -9999.00      2.21678    
   15.4220     -9999.00      2.01143    
   15.6714     -9999.00      1.90378    
   15.9249     -9999.00      1.80189    
   16.1825     -9999.00      1.70546    
   16.4442     -9999.00      1.63656    
   16.7102     -9999.00      1.58570    
   16.9805     -9999.00      1.55533    
   17.2551     -9999.00      1.57052    
   17.5342     -9999.00      1.60673    
   17.8178     -9999.00      1.71786    
   18.1060     -9999.00      1.98335    
   18.3989     -9999.00      3.14900    
   18.6964     -9999.00      3.91298    
   18.9988     -9999.00      4.10506    
   19.3061     -9999.00      4.30658    
   19.6184     -9999.00      4.47521    
   19.9357     -9999.00      4.62493    
   20.2582     -9999.00      4.77966    
   20.5858     -9999.00      4.87039    
   20.9188     -9999.00      4.91556    
   21.2571     -9999.00      4.96116    
   21.6009     -9999.00      5.00718    
   21.9503     -9999.00      4.96749    
   22.3053     -9999.00      4.90712    
   22.6661     -9999.00      4.84749    
   23.0327     -9999.00      4.80021    
   23.4053     -9999.00      4.77166    
   23.7838     -9999.00      4.74329    
   24.1685     -9999.00      4.71508    
   24.5594     -9999.00      4.69254    
   24.9566     -9999.00      4.67400    
   25.3603     -9999.00      4.65553    
   25.7705     -9999.00      4.66380    
   26.1873     -9999.00      4.71894    
   26.6109     -9999.00      4.77472    
   27.0413     -9999.00      4.85873    
   27.4786     -9999.00      5.00257    
   27.9231     -9999.00      5.15068    
   28.3747     -9999.00      5.30316    
   28.8337     -9999.00      5.46017    
   29.3000    -0.190469E-01  5.62182    
   29.7739    -0.197996      5.81943    
   30.2555    -0.350369      6.06052    
   30.7449    -0.484374      6.31159    
   31.2421    -0.607477      6.57307    
   31.7475    -0.721675      6.84538    
   32.2609    -0.828426      7.12897    
   32.7827    -0.928105      7.42430    
   33.3130     -1.02446      7.73187    
   33.8518     -1.11200      8.06111    
   34.3993     -1.18669      8.40549    
   34.9557     -1.24877      8.76457    
   35.5211     -1.29792      9.13900    
   36.0956     -1.33196      9.52942    
   36.6794     -1.34888      9.93651    
   37.2727     -1.34422      10.3610    
   37.8755     -1.29478      10.8036    
   38.4882     -1.22953      11.2102    
   39.1107     -1.16711      11.6277    
   39.7432     -1.09395      12.0606    
   40.3861     -1.00394      12.5097    
   41.0393    -0.890645      12.9755    
   41.7031    -0.745923      13.4587    
   42.3776    -0.543576      13.9598    
   43.0630    -0.296529      14.3933    
   43.7595    -0.633823E-01  14.8078    
   44.4673     0.162851      15.2343    
   45.1865     0.404636      15.6730    
   45.9174     0.670428      16.1244    
   46.6600     0.977847      16.5888    
   47.4147      1.35655      17.0083    
   48.1816      1.71333      17.3743    
   48.9609      2.04922      17.7481    
   49.7528      2.39283      18.1300    
   50.5576      2.74979      18.5201    
   51.3753      3.12624      18.9186    
   52.2062      3.52846      19.3257    
   53.0506      3.96465      19.7416    
   53.9087      4.49624      20.1664    
   54.7806      5.03778      20.4618    
   55.6667      5.54640      20.7546    
   56.5670      6.05597      21.0516    
   57.4820      6.57968      21.3528    
   58.4117      7.12846      21.6584    
   59.3564      7.71713      21.9683    
   60.3165      8.39292      22.2826    
   61.2921      9.11791      22.4414    
   62.2834      9.79515      22.5474    
   63.2908      10.4385      22.6540    
   64.3145      11.0902      22.7611    
   65.3547      11.8141      22.8686    
   66.4118      12.5747      22.8385    
   67.4859      13.2446      22.7256    
   68.5775      13.8601      22.6134    
   69.6867      14.4464      22.5016    
   70.8138      15.0129      22.3905    
   71.9591      15.5674      22.2836    
   73.1230      16.1181      22.1787    
   74.3057      16.6702      22.0744    
   75.5076      17.2288      21.9706    
   76.7289      17.8016      21.8673    
   77.9699      18.3972      21.7644    
   79.2310      19.1184      21.6620    
   80.5125      19.8246      21.3316    
   81.8147      20.4169      20.9720    
   83.1380      20.9561      20.6185    
   84.4827      21.4659      20.2709    
   85.8491      21.9597      19.9292    
   87.2377      22.4493      19.5933    
   88.6487      22.9445      19.2630    
   90.0825      23.5796      18.9170    
   91.5395      24.1311      18.3324    
   93.0201      24.5460      17.7658    
   94.5246      24.9067      17.2168    
   96.0535      25.2341      16.6847    
   97.6071      25.5494      16.1691    
   99.1858      25.9016      15.6111    
   100.790      26.1721      14.9817    
   102.420      26.3580      14.3776    
   104.077      26.5099      13.7979    
   105.760      26.6449      13.2416    
   107.471      26.8026      12.7078    
   109.209      26.9990      12.0481    
   110.975      27.0515      11.2957    
   112.770      26.9562      10.5903    
   114.594      26.7866      9.92901    
   116.448      26.4624      9.33377    
   118.331      26.1632      8.92792    
   120.245      25.9252      8.53970    
   122.190      25.6884      8.16837    
   124.166      25.4441      7.81320    
   126.175      25.1874      7.47345    
   128.215      24.8457      7.15676    
   130.289      24.5382      6.98801    
   132.397      24.2996      6.82325    
   134.538      24.0848      6.66236    
   136.714      23.8864      6.50527    
   138.925      23.7011      6.35188    
   141.172      23.5300      6.20212    
   143.456      23.3925      6.05588    
   145.776      23.2499      5.83434    
   148.134      23.0656      5.60294    
   150.530      22.8410      5.38071    
   152.964      22.5782      5.16729    
   155.439      22.3000      5.00637    
   157.953      22.0239      4.85968    
   160.507      21.7449      4.71729    
   163.103      21.4528      4.57907    
   165.742      21.1114      4.44490    
   168.422      20.7659      4.38366    
   171.146      20.4408      4.33065    
   173.915      20.1123      4.27828    
   176.727      19.7458      4.22654    
   179.586      19.3527      4.23214    
   182.491      18.9888      4.28425    
   185.442      18.6393      4.33701    
   188.442      18.2782      4.39229    
   191.489      17.9117      4.46330    
   194.587      17.5069      4.53545    
   197.734      17.0794      4.67279    
   200.932      16.6730      4.85109    
   204.182      16.2564      5.03619    
   207.485      15.8217      5.29026    
   210.840      15.4172      5.59582    
   214.251      15.0443      5.91903    
   217.716      14.6842      6.26091    
   221.237      14.3222      6.62253    
   224.816      13.9619      7.02794    
   228.452      13.6286      7.48200    
   232.147      13.3246      7.96542    
   235.902      13.0473      8.48005    
   239.717      12.8034      9.02793    
   243.595      12.6029      9.61123    
   247.535      12.4964      10.2322    
   251.538      12.4204      10.7417    
   255.607      12.3243      11.2556    
   259.741      12.2171      11.7942    
   263.942      12.1223      12.3584    
   268.211      12.0466      12.9497    
   272.549      12.0081      13.5693    
   276.957      11.9950      14.1793    
   281.437      11.9967      14.8084    
   285.989      12.0186      15.4653    
   290.615      12.0755      16.1514    
   295.315      12.1774      16.8680    
   300.092      12.3313      17.6163    
   304.945      12.6954      18.3951    
   309.878      13.0611      18.9175    
   314.890      13.3331      19.4547    
   319.983      13.5960      20.0072    
   325.158      13.8628      20.5753    
   330.418      14.1441      21.1596    
   335.762      14.4475      21.7604    
   341.192      14.7887      22.3784    
   346.711      15.1596      22.9883    
   352.319      15.5648      23.6148    
   358.017      16.0206      24.2584    
   363.808      16.5521      24.9196    
   369.692      17.2953      25.5065    
   375.672      17.9936      25.8526    
   381.748      18.5700      26.2034    
   387.922      19.1362      26.5590    
   394.197      19.7123      26.9193    
   400.573      20.3436      27.2651    
   407.052      20.9434      27.5050    
   413.635      21.4993      27.7470    
   420.326      22.0373      27.9911    
   427.124      22.5667      28.2373    
   434.032      23.0830      28.4857    
   441.052      23.6030      28.7548    
   448.186      24.1409      29.0301    
   455.435      24.6970      29.3081    
   462.802      25.2767      29.5887    
   470.287      25.8826      29.8720    
   477.894      26.6174      30.1581    
   485.623      27.3693      30.2584    
   493.478      28.0247      30.3011    
   501.459      28.6345      30.3439    
   509.570      29.2198      30.3867    
   517.812      29.7900      30.4296    
   526.187      30.3535      30.4726    
   534.698      30.9248      30.5098    
   543.346      31.4781      30.5114    
   552.134      32.0088      30.5130    
   561.065      32.5266      30.5146    
   570.139      33.0349      30.5162    
   579.361      33.5360      30.5178    
   588.732      34.0325      30.5194    
   598.254      34.5296      30.5161    
   607.930      35.0171      30.5018    
   617.763      35.4915      30.4876    
   627.755      35.9573      30.4733    
   637.908      36.4129      30.4591    
   648.226      36.8461      30.4449    
   658.711      37.2768      30.4754    
   669.365      37.7271      30.5171    
   680.191      38.1957      30.5589    
   691.193      38.6759      30.6007    
   702.372      39.1686      30.6426    
   713.733      39.6763      30.6846    
   725.277      40.2046      30.7266    
   737.008      40.7789      30.7687    
   748.928      41.3642      30.7284    
   761.042      41.9263      30.6716    
   773.351      42.4766      30.6148    
   785.859      43.0405      30.5581    
   798.570      43.6263      30.4589    
   811.486      44.1861      30.3133    
   824.611      44.7075      30.1684    
   837.949      45.2161      30.0242    
   851.502      45.7079      29.8708    
   865.274      46.1576      29.7313    
   879.269      46.6299      29.6754    
   893.491      47.1570      29.6188    
   907.943      47.7334      29.5621    
   922.628      48.4206      29.5053    
   937.551      49.1309      29.2356    
   952.715      49.7778      28.9114    
   968.124      50.3491      28.5412    
   983.783      50.8717      28.1749    
   999.695      51.3693      27.8069    
   1015.86      51.8629      27.4369    
   1032.29      52.3204      27.0066    
   1048.99      52.7278      26.5799    
   1065.96      53.0993      26.1572    
   1083.20      53.4421      25.7403    
   1100.72      53.7600      25.3299    
   1118.52      54.0566      24.9258    
   1136.61      54.3335      24.5275    
   1155.00      54.5921      24.1351    
   1173.68      54.8337      23.7486    
   1192.66      55.0592      23.3680    
   1211.95      55.2695      22.9932    
   1231.55      55.4648      22.6243    
   1251.47      55.6456      22.2625    
   1271.72      55.8136      21.9081    
   1292.29      55.9712      21.5614    
   1313.19      56.1187      21.2198    
   1334.43      56.2559      20.8834    
   1356.01      56.3829      20.5520    
   1377.94      56.5001      20.2255    
   1400.23      56.6079      19.9039    
   1422.88      56.7069      19.5870    
   1445.89      56.7988      19.2751    
   1469.28      56.8859      18.9645    
   1493.04      56.9697      18.6533    
   1517.19      57.0382      18.3246    
   1541.73      57.0835      17.9986    
   1566.67      57.1098      17.6781    
   1592.01      57.1202      17.3633    
   1617.76      57.1157      17.0540    
   1643.92      57.0962      16.7496    
   1670.51      57.0618      16.4507    
   1697.53      57.0125      16.1571    
   1724.99      56.9534      15.8686    
   1752.89      56.8780      15.5744    
   1781.24      56.7787      15.2820    
   1810.05      56.6564      14.9920    
   1839.32      56.5093      14.7078    
   1869.07      56.3380      14.4290    
   1899.30      56.1407      14.1553    
   1930.02      55.9154      13.8869    
   1961.24      55.6592      13.6235    
   1992.96      55.3668      13.3650    
   2025.20      55.0434      13.1185    
   2057.95      54.6797      12.8632    
   2091.24      54.2571      12.6103    
   2125.06      53.7720      12.3611    
   2159.43      53.2117      12.1153    
   2194.36      52.5593      11.8730    
   2229.85      51.7911      11.6340    
   2265.92      50.8725      11.3989    
   2302.57      49.7492      11.1668    
   2339.81      48.3300      10.9385    
   2377.66      46.4421      10.7132    
   2416.11      43.6817      10.4912    
   2455.19      38.5802      10.2727    
   2483.90      7.55536      10.1172    
   2484.10      7.55545      27.1005    
   2494.90      32.7224      26.9285    
   2535.26      39.4912      26.3021    
   2576.26      36.9488      25.6922    
   2585.50      20.8428      25.5580    
   2585.70      20.8582      37.1626    
   2617.93      44.0586      36.5035    
   2660.27      48.9258      35.6671    
   2703.30      51.9651      34.8512    
   2747.03      54.2035      34.0545    
   2791.46      55.9517      33.2771    
   2836.61      57.3468      32.5188    
   2882.49      58.4533      31.7787    
   2929.11      59.2865      31.0559    
   2976.48      59.7967      30.3501    
   3024.63      59.8782      29.6607    
   3066.30      52.2055      29.0851    
   3066.50      52.2198      33.7226    
   3073.55      58.1504      33.6102    
   3123.26      61.9965      32.8347    
   3173.78      63.6676      32.0774    
   3225.11      64.8856      31.3389    
   3277.27      65.8627      30.6172    
   3330.28      66.6690      29.9126    
   3384.15      67.3318      29.2257    
   3438.88      67.8473      28.5547    
   3494.50      68.1485      27.8995    
   3551.02      67.1984      27.2592    
   3554.10      65.4185      27.2250    
   3554.30      65.4207      28.8681    
   3608.46      69.2095      28.2577    
   3666.82      70.0404      27.6241    
   3726.13      70.6325      27.0039    
   3786.40      71.2018      26.3988    
   3847.64      70.5957      25.8082    
   3850.60      70.0014      25.7802    
   3850.80      70.0105      26.9029    
   3909.87      72.0749      26.3307    
   3973.11      72.7886      25.7409    
   4037.38      73.3590      25.1637    
   4102.68      73.8532      24.5952    
   4169.03      74.2923      24.0380    
   4236.46      74.6888      23.4915    
   4304.98      75.0501      22.9555    
   4374.62      75.3804      22.4299    
   4445.37      75.6838      21.9144    
   4517.27      75.9624      21.4086    
   4590.33      76.2187      20.9140    
   4664.58      76.4553      20.4285    
   4740.03      76.6730      19.9531    
   4816.69      76.8734      19.4874    
   4894.60      77.0577      19.0313    
   4973.77      77.2271      18.5848    
   5054.21      77.3825      18.1474    
   5135.96      77.5246      17.7195    
   5219.03      77.6546      17.3007    
   5303.44      77.7730      16.8908    
   5389.22      77.8805      16.4899    
   5476.39      77.9778      16.0974    
   5564.97      78.0653      15.7138    
   5654.98      78.1437      15.3386    
   5746.44      78.2137      14.9716    
   5839.39      78.2753      14.6127    
   5933.83      78.3291      14.2620    
   6029.81      78.3757      13.9191    
   6127.33      78.4153      13.5837    
   6226.44      78.4481      13.2562    
   6327.15      78.4748      12.9361    
   6429.48      78.4954      12.6231    
   6533.48      78.5102      12.3174    
   6639.15      78.5196      12.0188    
   6746.54      78.5237      11.7269    
   6855.65      78.5227      11.4420    
   6966.54      78.5171      11.1635    
   7079.22      78.5066      10.8916    
   7193.72      78.4918      10.6259    
   7310.07      78.4724      10.3665    
   7428.31      78.4489      10.1134    
   7548.45      78.4215      9.86598    
   7670.54      78.3900      9.62445    
   7794.61      78.3545      9.38862    
   7920.68      78.3152      9.15857    
   8048.79      78.2721      8.93357    
   8178.98      78.2250      8.71414    
   8311.26      78.1742      8.50001    
   8445.69      78.1198      8.29100    
   8582.29      78.0614      8.08675    
   8721.11      77.9992      7.88755    
   8862.16      77.9328      7.69289    
   9005.50      77.8622      7.50323    
   9151.16      77.7877      7.31784    
   9299.17      77.7086      7.13700    
   9449.58      77.6250      6.96041    
   9602.42      77.5366      6.78811    
   9757.73      77.4434      6.61995    
   9915.55      77.3469      6.45597    
   10075.9      77.2448      6.28685    
   10238.9      77.1286      6.12209    
   10404.5      77.0024      5.96160    
   10572.8      76.8651      5.80528    
   10743.8      76.7155      5.65305    
   10917.6      76.5520      5.50481    
   11094.2      76.3724      5.36048    
   11273.6      76.1736      5.21995    
   11455.9      75.9513      5.08316    
   11641.2      75.6997      4.95001    
   11829.5      75.4099      4.82040    
   12020.8      75.0682      4.69427    
   12215.3      74.6520      4.57153    
   12412.8      74.1185      4.45209    
   12613.6      73.3727      4.33588    
   12817.6      72.1273      4.22282    
   13025.0      66.2656      4.11283    
   13035.1      57.3925      4.10756    
   13035.3      57.3934      10.2182    
   13235.6      72.1211      9.94988    
   13449.7      73.5107      9.67521    
   13667.2      74.2555      9.40812    
   13888.3      74.7157      9.14841    
   14112.9      74.9955      8.89587    
   14341.2      75.1292      8.65032    
   14573.1      75.1116      8.41153    
   14808.9      74.8802      8.17935    
   15048.4      74.1340      7.95357    
   15199.9      67.1548      7.81578    
   15200.1      67.1557      10.8971    
   15291.8      73.7601      10.8014    
   15539.1      75.0244      10.5499    
   15790.4      75.0876      10.3043    
   15860.7      72.1981      10.2374    
   15860.9      72.1987      11.7048    
   16045.8      76.1119      11.5060    
   16305.4      76.9637      11.2365    
   16569.1      77.5480      10.9716    
   16837.1      78.0109      10.7114    
   17109.4      78.3979      10.4559    
   17386.1      78.7308      10.2051    
   17667.4      79.0223      9.95896    
   17953.1      79.2805      9.71754    
   18243.5      79.5111      9.48079    
   18538.6      79.7183      9.24872    
   18838.4      79.9053      9.02127    
   19143.1      80.0746      8.79845    
   19452.7      80.2283      8.58020    
   19767.4      80.3680      8.36648    
   20087.1      80.4952      8.15726    
   20412.0      80.6110      7.95250    
   20742.1      80.7165      7.75215    
   21077.6      80.8126      7.55615    
   21418.5      80.9001      7.36446    
   21765.0      80.9796      7.17701    
   22117.0      81.0518      6.99377    
   22474.7      81.1173      6.81465    
   22838.2      81.1765      6.63961    
   23207.6      81.2299      6.46858    
   23583.0      81.2779      6.30150    
   23964.4      81.3210      6.13832    
   24352.0      81.3594      5.97895    
   24745.9      81.3934      5.82334    
   25146.2      81.4234      5.67142    
   25552.9      81.4497      5.52314    
   25966.2      81.4724      5.37841    
   26386.1      81.4918      5.23718    
   26812.9      81.5082      5.09938    
   27246.6      81.5217      4.96494    
   27687.3      81.5325      4.83380    
   28135.1      81.5408      4.70590    
   28590.2      81.5468      4.58116    
   29052.6      81.5506      4.45953    
   29522.5      81.5523      4.34093    
   30000.0      81.5521      4.22531    
