 pr, Z=59, (Energy (eV),f1,f2)
   10.0000     -9999.00      1.26325    
   10.1617     -9999.00      1.25455    
   10.3261     -9999.00      1.24591    
   10.4931     -9999.00      1.23732    
   10.6628     -9999.00      1.22879    
   10.8353     -9999.00      1.22033    
   11.0106     -9999.00      1.21192    
   11.1886     -9999.00      1.20357    
   11.3696     -9999.00      1.19528    
   11.5535     -9999.00      1.18704    
   11.7404     -9999.00      1.17886    
   11.9303     -9999.00      1.17022    
   12.1232     -9999.00      1.16019    
   12.3193     -9999.00      1.15025    
   12.5186     -9999.00      1.14040    
   12.7210     -9999.00      1.13063    
   12.9268     -9999.00      1.12094    
   13.1359     -9999.00      1.10453    
   13.3483     -9999.00      1.08708    
   13.5642     -9999.00      1.06991    
   13.7836     -9999.00      1.05301    
   14.0066     -9999.00      1.01549    
   14.2331     -9999.00     0.995923    
   14.4633     -9999.00     0.976736    
   14.6973     -9999.00     0.957920    
   14.9350     -9999.00     0.934994    
   15.1765     -9999.00     0.910276    
   15.4220     -9999.00     0.886214    
   15.6714     -9999.00     0.862786    
   15.9249     -9999.00     0.839978    
   16.1825     -9999.00     0.817772    
   16.4442     -9999.00     0.797256    
   16.7102     -9999.00     0.778139    
   16.9805     -9999.00     0.759481    
   17.2551     -9999.00     0.741270    
   17.5342     -9999.00     0.723495    
   17.8178     -9999.00     0.706146    
   18.1060     -9999.00     0.689214    
   18.3989     -9999.00     0.672688    
   18.6964     -9999.00     0.659987    
   18.9988     -9999.00     0.648801    
   19.3061     -9999.00     0.638260    
   19.6184     -9999.00     0.650404    
   19.9357     -9999.00     0.679953    
   20.2582     -9999.00     0.797032    
   20.5858     -9999.00      1.13127    
   20.9188     -9999.00      1.44463    
   21.2571     -9999.00      1.68469    
   21.6009     -9999.00      1.79339    
   21.9503     -9999.00      1.78379    
   22.3053     -9999.00      1.78873    
   22.6661     -9999.00      1.85314    
   23.0327     -9999.00      2.02518    
   23.4053     -9999.00      2.32098    
   23.7838     -9999.00      2.81683    
   24.1685     -9999.00      4.27386    
   24.5594     -9999.00      12.2025    
   24.9566     -9999.00      14.1414    
   25.3603     -9999.00      15.0203    
   25.7705     -9999.00      15.3932    
   26.1873     -9999.00      15.7493    
   26.6109     -9999.00      15.9969    
   27.0413     -9999.00      16.0100    
   27.4786     -9999.00      15.9703    
   27.9231     -9999.00      15.9306    
   28.3747     -9999.00      15.8911    
   28.8337     -9999.00      15.8517    
   29.3000      9.51277      15.3555    
   29.7739      10.3093      14.8658    
   30.2555      10.9704      14.3917    
   30.7449      11.5511      13.9328    
   31.2421      12.0779      13.4885    
   31.7475      12.5508      13.0114    
   32.2609      12.9459      12.5426    
   32.7827      13.2853      12.0908    
   33.3130      13.5794      11.6552    
   33.8518      13.8347      11.2353    
   34.3993      14.0561      10.8306    
   34.9557      14.2474      10.4404    
   35.5211      14.4118      10.0643    
   36.0956      14.5519      9.70173    
   36.6794      14.6700      9.35222    
   37.2727      14.7679      9.01531    
   37.8755      14.8471      8.69053    
   38.4882      14.9089      8.37745    
   39.1107      14.9543      8.07567    
   39.7432      14.9832      7.78473    
   40.3861      14.9936      7.50429    
   41.0393      14.9888      7.24826    
   41.7031      14.9824      7.00541    
   42.3776      14.9695      6.77070    
   43.0630      14.9489      6.54385    
   43.7595      14.9199      6.32461    
   44.4673      14.8824      6.11270    
   45.1865      14.8357      5.90790    
   45.9174      14.7792      5.70996    
   46.6600      14.7091      5.51866    
   47.4147      14.6155      5.34218    
   48.1816      14.5285      5.19977    
   48.9609      14.4491      5.06116    
   49.7528      14.3693      4.92623    
   50.5576      14.2867      4.79491    
   51.3753      14.1995      4.66709    
   52.2062      14.1061      4.54267    
   53.0506      14.0027      4.42158    
   53.9087      13.8793      4.30371    
   54.7806      13.7492      4.23031    
   55.6667      13.6381      4.16580    
   56.5670      13.5340      4.10227    
   57.4820      13.4323      4.03971    
   58.4117      13.3311      3.97811    
   59.3564      13.2293      3.91744    
   60.3165      13.1274      3.85770    
   61.2921      13.0239      3.79195    
   62.2834      12.9105      3.72467    
   63.2908      12.7880      3.65860    
   64.3145      12.6550      3.59369    
   65.3547      12.5050      3.52994    
   66.4118      12.3473      3.49273    
   67.4859      12.1947      3.45927    
   68.5775      12.0398      3.42614    
   69.6867      11.8792      3.39332    
   70.8138      11.7099      3.36082    
   71.9591      11.5263      3.32862    
   73.1230      11.3266      3.31436    
   74.3057      11.1320      3.31088    
   75.5076      10.9348      3.30740    
   76.7289      10.7312      3.30392    
   77.9699      10.5189      3.30045    
   79.2310      10.2965      3.29698    
   80.5125      10.0629      3.29351    
   81.8147      9.81941      3.29005    
   83.1380      9.56546      3.27223    
   84.4827      9.27794      3.24426    
   85.8491      8.95921      3.21654    
   87.2377      8.60781      3.18905    
   88.6487      8.21876      3.16179    
   90.0825      7.77969      3.14031    
   91.5395      7.30552      3.13585    
   93.0201      6.78959      3.13139    
   94.5246      6.21876      3.12694    
   96.0535      5.58112      3.12250    
   97.6071      4.86185      3.11807    
   99.1858      4.04143      3.11364    
   100.790      3.09272      3.10921    
   102.420      1.97565      3.10480    
   104.077     0.621654      3.10039    
   105.760     -1.12214      3.10472    
   107.471     -3.66291      3.21631    
   109.209     -7.18093      7.64026    
   110.975     -6.23020      7.41665    
   112.770     -9.00006      7.09828    
   114.594     -12.6272      8.41926    
   116.448     -16.9216      10.0512    
   118.331     -23.5851      12.1216    
   120.245     -39.2241      21.9328    
   122.190     -51.7708      44.1119    
   124.166     -19.7356      77.7003    
   126.175      8.11330      77.7355    
   128.215      23.7668      67.1861    
   130.289      30.1202      56.6110    
   132.397      33.3569      50.3933    
   134.538      35.4313      44.8583    
   136.714      36.7197      40.7266    
   138.925      37.8197      37.1906    
   141.172      38.6968      33.9618    
   143.456      39.2228      31.0132    
   145.776      39.5635      28.5342    
   148.134      39.8373      26.2695    
   150.530      40.0722      24.1845    
   152.964      40.4028      22.2456    
   155.439      40.4547      19.8981    
   157.953      40.1564      17.7984    
   160.507      39.5523      15.9420    
   163.103      38.9137      14.4725    
   165.742      38.2985      13.1384    
   168.422      37.6418      11.9310    
   171.146      36.9960      10.9058    
   173.915      36.3736      9.96875    
   176.727      35.8086      9.11221    
   179.586      35.2097      8.14682    
   182.491      34.3256      7.36251    
   185.442      33.5005      6.81011    
   188.442      32.7879      6.43012    
   191.489      32.1674      6.08629    
   194.587      31.6025      5.72861    
   197.734      31.0204      5.37495    
   200.932      30.3668      5.04311    
   204.182      29.6587      4.88899    
   207.485      29.0851      4.85298    
   210.840      28.5802      4.81723    
   214.251      28.0751      4.78175    
   217.716      27.5909      4.84427    
   221.237      27.1879      4.94149    
   224.816      26.8333      5.04071    
   228.452      26.5173      5.15228    
   232.147      26.2347      5.26633    
   235.902      25.9799      5.38289    
   239.717      25.7482      5.50204    
   243.595      25.5369      5.62382    
   247.535      25.3436      5.74830    
   251.538      25.1664      5.87554    
   255.607      25.0036      6.00559    
   259.741      24.8536      6.13852    
   263.942      24.7146      6.27439    
   268.211      24.5811      6.41774    
   272.549      24.4632      6.57150    
   276.957      24.3599      6.72895    
   281.437      24.2674      6.89017    
   285.989      24.1832      7.05524    
   290.615      24.0969      7.22463    
   295.315      24.0291      7.43554    
   300.092      23.9895      7.65262    
   304.945      23.9770      7.87602    
   309.878      23.9919      8.10594    
   314.890      24.0547      8.34259    
   319.983      24.1511      8.53385    
   325.158      24.2394      8.70421    
   330.418      24.3346      8.87796    
   335.762      24.4505      9.05520    
   341.192      24.6205      9.23597    
   346.711      24.7899      9.31083    
   352.319      24.9317      9.38263    
   358.017      25.0564      9.45497    
   363.808      25.1773      9.52788    
   369.692      25.2981      9.60133    
   375.672      25.4225      9.67537    
   381.748      25.5680      9.74044    
   387.922      25.7027      9.78223    
   394.197      25.8262      9.82419    
   400.573      25.9484      9.86634    
   407.052      26.0719      9.90866    
   413.635      26.1994      9.95117    
   420.326      26.3361      9.99386    
   427.124      26.5026      10.0367    
   434.032      26.6592      10.0091    
   441.052      26.7916      9.98048    
   448.186      26.9064      9.95198    
   455.435      27.0116      9.92355    
   462.802      27.1092      9.89521    
   470.287      27.2004      9.86695    
   477.894      27.2860      9.83877    
   485.623      27.3667      9.81067    
   493.478      27.4433      9.78264    
   501.459      27.5159      9.75447    
   509.570      27.5852      9.72639    
   517.812      27.6517      9.69838    
   526.187      27.7161      9.67045    
   534.698      27.7797      9.64262    
   543.346      27.8442      9.61485    
   552.134      27.9122      9.58717    
   561.065      28.0026      9.55957    
   570.139      28.1207      9.48629    
   579.361      28.1888      9.35343    
   588.732      28.2168      9.22244    
   598.254      28.2184      9.09328    
   607.930      28.1973      8.96593    
   617.763      28.1544      8.84036    
   627.755      28.0865      8.71655    
   637.908      27.9998      8.60905    
   648.226      27.9011      8.50652    
   658.711      27.7892      8.40522    
   669.365      27.6606      8.30512    
   680.191      27.5142      8.20622    
   691.193      27.3492      8.10849    
   702.372      27.1659      8.01193    
   713.733      26.9730      7.91652    
   725.277      26.7546      7.78071    
   737.008      26.4807      7.63111    
   748.928      26.1473      7.48439    
   761.042      25.7588      7.34049    
   773.351      25.3091      7.19935    
   785.859      24.7893      7.06093    
   798.570      24.1867      6.92517    
   811.486      23.4837      6.79202    
   824.611      22.6556      6.66143    
   837.949      21.6648      6.53335    
   851.502      20.4572      6.41502    
   865.274      18.9522      6.30445    
   879.269      16.9924      6.19579    
   893.491      14.2483      6.08900    
   907.943      9.84705      5.98405    
   922.628    -0.721609      5.88091    
   928.700     -37.3246      5.83926    
   928.900     -37.3125      33.9113    
   937.551      2.83807      33.7762    
   952.715      12.1674      33.5436    
   968.124      16.9393      33.3126    
   983.783      20.2583      33.0832    
   999.695      22.8595      32.8554    
   1015.86      25.0416      32.6291    
   1032.29      26.9661      32.4044    
   1048.99      28.7601      32.1812    
   1065.96      30.5668      31.7713    
   1083.20      32.0995      31.0986    
   1100.72      33.3236      30.4402    
   1118.52      34.3850      29.7956    
   1136.61      35.3086      29.1647    
   1155.00      36.1117      28.5472    
   1173.68      36.8039      27.9427    
   1192.66      37.3873      27.3511    
   1211.95      37.8531      26.7721    
   1231.55      38.1461      26.2053    
   1251.47      38.2810      25.8316    
   1271.72      38.3271      25.6620    
   1292.29      38.5379      25.7403    
   1313.19      38.8755      25.8189    
   1334.43      39.2785      25.8977    
   1356.01      39.7286      25.9765    
   1377.94      40.2186      26.0556    
   1400.23      40.7467      26.1350    
   1422.88      41.3163      26.2148    
   1445.89      41.9399      26.2946    
   1469.28      42.6417      26.3156    
   1493.04      43.2456      26.2462    
   1517.19      44.0383      26.4812    
   1541.73      45.1981      26.4663    
   1566.67      46.1732      25.9204    
   1592.01      46.9180      25.3856    
   1617.76      47.5561      24.8619    
   1643.92      48.1225      24.3488    
   1670.51      48.6352      23.8466    
   1697.53      49.1048      23.3547    
   1724.99      49.5469      22.8728    
   1752.89      49.9568      22.3852    
   1781.24      50.3315      21.9028    
   1810.05      50.6753      21.4268    
   1839.32      50.9907      20.9609    
   1869.07      51.2825      20.5051    
   1899.30      51.5533      20.0595    
   1930.02      51.8053      19.6236    
   1961.24      52.0402      19.1971    
   1992.96      52.2566      18.7796    
   2025.20      52.4693      18.3800    
   2057.95      52.6707      17.9729    
   2091.24      52.8528      17.5726    
   2125.06      53.0210      17.1804    
   2159.43      53.1769      16.7958    
   2194.36      53.3210      16.4183    
   2229.85      53.4536      16.0483    
   2265.92      53.5756      15.6859    
   2302.57      53.6882      15.3308    
   2339.81      53.7916      14.9827    
   2377.66      53.8855      14.6412    
   2416.11      53.9713      14.3077    
   2455.19      54.0490      13.9802    
   2494.90      54.1192      13.6603    
   2535.26      54.1821      13.3466    
   2576.26      54.2382      13.0399    
   2617.93      54.2877      12.7392    
   2660.27      54.3310      12.4456    
   2703.30      54.3684      12.1576    
   2747.03      54.3998      11.8758    
   2791.46      54.4255      11.6003    
   2836.61      54.4460      11.3311    
   2882.49      54.4617      11.0677    
   2929.11      54.4724      10.8098    
   2976.48      54.4782      10.5576    
   3024.63      54.4795      10.3112    
   3073.55      54.4764      10.0701    
   3123.26      54.4689      9.83430    
   3173.78      54.4573      9.60393    
   3225.11      54.4415      9.37871    
   3277.27      54.4218      9.15858    
   3330.28      54.3981      8.94336    
   3384.15      54.3706      8.73296    
   3438.88      54.3391      8.52741    
   3494.50      54.3039      8.32653    
   3551.02      54.2649      8.13021    
   3608.46      54.2220      7.93831    
   3666.82      54.1753      7.75086    
   3726.13      54.1246      7.56763    
   3786.40      54.0699      7.38873    
   3847.64      54.0113      7.21381    
   3909.87      53.9482      7.04290    
   3973.11      53.8808      6.87600    
   4037.38      53.8088      6.71291    
   4102.68      53.7321      6.55372    
   4169.03      53.6502      6.39807    
   4236.46      53.5629      6.24610    
   4304.98      53.4698      6.09758    
   4374.62      53.3703      5.95244    
   4445.37      53.2639      5.81071    
   4517.27      53.1499      5.67233    
   4590.33      53.0276      5.53715    
   4664.58      52.8959      5.40507    
   4740.03      52.7536      5.27606    
   4816.69      52.5994      5.15015    
   4894.60      52.4315      5.02710    
   4973.77      52.2474      4.90683    
   5054.21      52.0443      4.78939    
   5135.96      51.8185      4.67474    
   5219.03      51.5649      4.56270    
   5303.44      51.2765      4.45330    
   5389.22      50.9431      4.34640    
   5476.39      50.5498      4.24207    
   5564.97      50.0721      4.14014    
   5654.98      49.4662      4.04057    
   5746.44      48.6413      3.94324    
   5839.39      47.3479      3.84822    
   5933.83      44.1222      3.75541    
   5964.20      31.0525      3.72637    
   5964.40      31.0543      10.9378    
   6029.81      45.9299      10.7127    
   6127.33      47.8575      10.3900    
   6226.44      48.5951      10.0768    
   6327.15      48.6512      9.77311    
   6429.48      46.5127      9.47860    
   6440.30      41.0686      9.44825    
   6440.50      41.0699      13.1333    
   6533.48      49.4856      12.8076    
   6639.15      50.6339      12.4524    
   6746.54      51.1353      12.1071    
   6834.70      48.3462      11.8346    
   6834.90      48.3472      13.3832    
   6855.65      51.0931      13.3270    
   6966.54      52.5597      13.0330    
   7079.22      53.3485      12.7425    
   7193.72      53.9617      12.4557    
   7310.07      54.4756      12.1731    
   7428.31      54.9208      11.8942    
   7548.45      55.3132      11.6195    
   7670.54      55.6634      11.3489    
   7794.61      55.9786      11.0826    
   7920.68      56.2640      10.8207    
   8048.79      56.5233      10.5630    
   8178.98      56.7599      10.3097    
   8311.26      56.9761      10.0610    
   8445.69      57.1744      9.81692    
   8582.29      57.3564      9.57696    
   8721.11      57.5233      9.34149    
   8862.16      57.6767      9.11078    
   9005.50      57.8179      8.88448    
   9151.16      57.9475      8.66245    
   9299.17      58.0664      8.44494    
   9449.58      58.1756      8.23199    
   9602.42      58.2759      8.02349    
   9757.73      58.3677      7.81913    
   9915.55      58.4516      7.61956    
   10075.9      58.5287      7.42395    
   10238.9      58.5987      7.23260    
   10404.5      58.6624      7.04544    
   10572.8      58.7202      6.86244    
   10743.8      58.7724      6.68356    
   10917.6      58.8194      6.50872    
   11094.2      58.8616      6.33787    
   11273.6      58.8992      6.17097    
   11455.9      58.9325      6.00795    
   11641.2      58.9619      5.84876    
   11829.5      58.9874      5.69332    
   12020.8      59.0095      5.54159    
   12215.3      59.0282      5.39349    
   12412.8      59.0439      5.24897    
   12613.6      59.0566      5.10797    
   12817.6      59.0666      4.97041    
   13025.0      59.0740      4.83624    
   13235.6      59.0791      4.70539    
   13449.7      59.0818      4.57780    
   13667.2      59.0825      4.45341    
   13888.3      59.0812      4.33214    
   14112.9      59.0780      4.21395    
   14341.2      59.0731      4.09876    
   14573.1      59.0666      3.98651    
   14808.9      59.0586      3.87714    
   15048.4      59.0491      3.77060    
   15291.8      59.0383      3.66681    
   15539.1      59.0262      3.56572    
   15790.4      59.0130      3.46727    
   16045.8      58.9987      3.37140    
   16305.4      58.9834      3.27805    
   16569.1      58.9671      3.18717    
   16837.1      58.9500      3.09870    
   17109.4      58.9320      3.01258    
   17386.1      58.9133      2.92875    
   17667.4      58.8938      2.84717    
   17953.1      58.8737      2.76778    
   18243.5      58.8529      2.69053    
   18538.6      58.8315      2.61536    
   18838.4      58.8096      2.54223    
   19143.1      58.7872      2.47109    
   19452.7      58.7643      2.40188    
   19767.4      58.7409      2.33456    
   20087.1      58.7171      2.26909    
   20412.0      58.6929      2.20541    
   20742.1      58.6683      2.14348    
   21077.6      58.6433      2.08326    
   21418.5      58.6179      2.02471    
   21765.0      58.5922      1.96777    
   22117.0      58.5662      1.91241    
   22474.7      58.5398      1.85860    
   22838.2      58.5131      1.80628    
   23207.6      58.4860      1.75542    
   23583.0      58.4586      1.70599    
   23964.4      58.4308      1.65794    
   24352.0      58.4027      1.61124    
   24745.9      58.3742      1.56585    
   25146.2      58.3453      1.52174    
   25552.9      58.3160      1.47887    
   25966.2      58.2862      1.43722    
   26386.1      58.2559      1.39674    
   26812.9      58.2250      1.35741    
   27246.6      58.1936      1.31919    
   27687.3      58.1616      1.28206    
   28135.1      58.1288      1.24599    
   28590.2      58.0954      1.21094    
   29052.6      58.0612      1.17689    
   29522.5      58.0292      1.14382    
   30000.0      57.9793      1.11169    
