 pt, Z=78, (Energy (eV),f1,f2)
   10.0000     -9999.00      2.24140    
   10.1617     -9999.00      2.28104    
   10.3261     -9999.00      2.32138    
   10.4931     -9999.00      2.36244    
   10.6628     -9999.00      2.40955    
   10.8353     -9999.00      2.45863    
   11.0106     -9999.00      2.50871    
   11.1886     -9999.00      2.55981    
   11.3696     -9999.00      2.61195    
   11.5535     -9999.00      2.66515    
   11.7404     -9999.00      2.73690    
   11.9303     -9999.00      2.81125    
   12.1232     -9999.00      2.88761    
   12.3193     -9999.00      2.96604    
   12.5186     -9999.00      3.04661    
   12.7210     -9999.00      3.12936    
   12.9268     -9999.00      3.21436    
   13.1359     -9999.00      3.30167    
   13.3483     -9999.00      3.40249    
   13.5642     -9999.00      3.50943    
   13.7836     -9999.00      3.61972    
   14.0066     -9999.00      3.73349    
   14.2331     -9999.00      3.85083    
   14.4633     -9999.00      3.97132    
   14.6973     -9999.00      4.09410    
   14.9350     -9999.00      4.22068    
   15.1765     -9999.00      4.35118    
   15.4220     -9999.00      4.48570    
   15.6714     -9999.00      4.62439    
   15.9249     -9999.00      4.76737    
   16.1825     -9999.00      4.92382    
   16.4442     -9999.00      5.11493    
   16.7102     -9999.00      5.31346    
   16.9805     -9999.00      5.51971    
   17.2551     -9999.00      5.73395    
   17.5342     -9999.00      5.95651    
   17.8178     -9999.00      6.18771    
   18.1060     -9999.00      6.42869    
   18.3989     -9999.00      6.67959    
   18.6964     -9999.00      6.94029    
   18.9988     -9999.00      7.21116    
   19.3061     -9999.00      7.49261    
   19.6184     -9999.00      7.78504    
   19.9357     -9999.00      8.10865    
   20.2582     -9999.00      8.44803    
   20.5858     -9999.00      8.80160    
   20.9188     -9999.00      9.16997    
   21.2571     -9999.00      9.55375    
   21.6009     -9999.00      9.82617    
   21.9503     -9999.00      10.0018    
   22.3053     -9999.00      10.1805    
   22.6661     -9999.00      10.3254    
   23.0327     -9999.00      10.2686    
   23.4053     -9999.00      10.2122    
   23.7838     -9999.00      10.1561    
   24.1685     -9999.00      10.0908    
   24.5594     -9999.00      10.0179    
   24.9566     -9999.00      9.94547    
   25.3603     -9999.00      9.87360    
   25.7705     -9999.00      9.80225    
   26.1873     -9999.00      9.75550    
   26.6109     -9999.00      9.77906    
   27.0413     -9999.00      9.80267    
   27.4786     -9999.00      9.82634    
   27.9231     -9999.00      9.85007    
   28.3747     -9999.00      9.87386    
   28.8337     -9999.00      9.90002    
   29.3000      4.75018      10.0030    
   29.7739      4.91917      10.1070    
   30.2555      5.12383      10.2122    
   30.7449      5.36757      10.3184    
   31.2421      5.67195      10.4257    
   31.7475      6.10734      10.4885    
   32.2609      6.50682      10.2993    
   32.7827      6.82274      10.1135    
   33.3130      7.14517      9.85999    
   33.8518      7.33606      9.54738    
   34.3993      7.44601      9.24468    
   34.9557      7.48468      8.95158    
   35.5211      7.46476      8.73033    
   36.0956      7.45388      8.53382    
   36.6794      7.43034      8.34171    
   37.2727      7.38290      8.15394    
   37.8755      7.30634      7.97582    
   38.4882      7.20433      7.80507    
   39.1107      7.06494      7.63798    
   39.7432      6.85001      7.47446    
   40.3861      6.54186      7.45605    
   41.0393      6.33144      7.51117    
   41.7031      6.15713      7.56671    
   42.3776      5.98580      7.62266    
   43.0630      5.79969      7.67901    
   43.7595      5.56187      7.77408    
   44.4673      5.35913      7.94085    
   45.1865      5.17514      8.11118    
   45.9174      4.98604      8.28516    
   46.6600      4.74494      8.46288    
   47.4147      4.41022      8.79591    
   48.1816      4.21243      9.24247    
   48.9609      4.09750      9.71171    
   49.7528      4.04225      10.2048    
   50.5576      4.05666      10.7091    
   51.3753      4.11036      11.2192    
   52.2062      4.21627      11.7535    
   53.0506      4.40240      12.3134    
   53.9087      4.72657      12.8908    
   54.7806      5.09679      13.2937    
   55.6667      5.46446      13.7093    
   56.5670      5.92082      14.1378    
   57.4820      6.52755      14.3866    
   58.4117      7.01573      14.5169    
   59.3564      7.49860      14.6483    
   60.3165      7.96723      14.5679    
   61.2921      8.22797      14.4274    
   62.2834      8.29224      14.4108    
   63.2908      8.40443      14.5101    
   64.3145      8.47961      14.6100    
   65.3547      8.39545      14.7107    
   66.4118      8.30658      15.2458    
   67.4859      8.39631      15.8407    
   68.5775      8.58111      16.6268    
   69.6867      9.09594      17.5532    
   70.8138      10.0659      18.5311    
   71.9591      11.2504      18.8555    
   73.1230      12.4248      19.1557    
   74.3057      13.8941      19.1313    
   75.5076      15.1220      18.7341    
   76.7289      16.0616      18.1156    
   77.9699      16.8175      17.5132    
   79.2310      17.4571      16.9264    
   80.5125      18.0563      16.3521    
   81.8147      18.5549      15.6601    
   83.1380      18.9250      14.9974    
   84.4827      19.1709      14.3878    
   85.8491      19.4255      13.8863    
   87.2377      19.7460      13.4023    
   88.6487      20.1246      12.7254    
   90.0825      20.2642      11.9476    
   91.5395      20.2451      11.2173    
   93.0201      20.0327      10.6215    
   94.5246      19.8880      10.1774    
   96.0535      19.7710      9.75193    
   97.6071      19.6371      9.34422    
   99.1858      19.4634      8.95357    
   100.790      19.2828      8.64946    
   102.420      19.1247      8.36195    
   104.077      18.9691      8.08400    
   105.760      18.8081      7.81529    
   107.471      18.6342      7.56036    
   109.209      18.4578      7.32109    
   110.975      18.2735      7.08939    
   112.770      18.0757      6.86502    
   114.594      17.8623      6.65472    
   116.448      17.6370      6.45444    
   118.331      17.3889      6.26053    
   120.245      17.1226      6.09217    
   122.190      16.8304      5.92833    
   124.166      16.4548      5.77458    
   126.175      16.0976      5.78754    
   128.215      15.7977      5.80054    
   130.289      15.5124      5.81356    
   132.397      15.2068      5.83960    
   134.538      14.9243      5.90864    
   136.714      14.6606      5.97849    
   138.925      14.3974      6.04917    
   141.172      14.1173      6.12068    
   143.456      13.8031      6.23732    
   145.776      13.5254      6.40088    
   148.134      13.2633      6.56873    
   150.530      12.9932      6.74099    
   152.964      12.7167      6.95984    
   155.439      12.4699      7.20614    
   157.953      12.2388      7.46117    
   160.507      12.0125      7.72521    
   163.103      11.7683      8.01646    
   165.742      11.5592      8.36053    
   168.422      11.3806      8.71938    
   171.146      11.2286      9.09362    
   173.915      11.1116      9.48043    
   176.727      11.0097      9.85501    
   179.586      10.9203      10.2444    
   182.491      10.8491      10.6492    
   185.442      10.8049      11.0699    
   188.442      10.8191      11.5073    
   191.489      10.8582      11.8722    
   194.587      10.8698      12.2278    
   197.734      10.8731      12.5940    
   200.932      10.8742      12.9712    
   204.182      10.8686      13.3597    
   207.485      10.8587      13.7959    
   210.840      10.8854      14.2654    
   214.251      10.9492      14.7510    
   217.716      11.0495      15.2531    
   221.237      11.2246      15.7509    
   224.816      11.4022      16.2117    
   228.452      11.5882      16.6860    
   232.147      11.8082      17.1742    
   235.902      12.0863      17.6767    
   239.717      12.4937      18.1211    
   243.595      12.8355      18.4349    
   247.535      13.1425      18.7542    
   251.538      13.4452      19.0789    
   255.607      13.7679      19.4094    
   259.741      14.1204      19.6839    
   263.942      14.4351      19.9230    
   268.211      14.7189      20.1650    
   272.549      14.9906      20.4099    
   276.957      15.2515      20.6577    
   281.437      15.4963      20.9164    
   285.989      15.7495      21.1951    
   290.615      16.0096      21.4776    
   295.315      16.2743      21.7638    
   300.092      16.5434      22.0538    
   304.945      16.8140      22.3507    
   309.878      17.0949      22.6567    
   314.890      17.3866      22.9664    
   319.983      17.6879      23.2798    
   325.158      17.9985      23.5970    
   330.418      18.3201      23.9196    
   335.762      18.6547      24.2466    
   341.192      19.0029      24.5777    
   346.711      19.3661      24.9135    
   352.319      19.7469      25.2539    
   358.017      20.1472      25.5986    
   363.808      20.5705      25.9480    
   369.692      21.0211      26.3024    
   375.672      21.5068      26.6619    
   381.748      22.0427      27.0267    
   387.922      22.6642      27.3705    
   394.197      23.3752      27.6596    
   400.573      24.1070      27.7573    
   407.052      24.7286      27.7781    
   413.635      25.2907      27.7993    
   420.326      25.8200      27.8201    
   427.124      26.3268      27.8410    
   434.032      26.8182      27.8624    
   441.052      27.2991      27.8840    
   448.186      27.7883      27.9008    
   455.435      28.2640      27.8929    
   462.802      28.7210      27.8663    
   470.287      29.1500      27.8300    
   477.894      29.5538      27.7952    
   485.623      29.9358      27.7593    
   493.478      30.2920      27.7233    
   501.459      30.6169      27.6882    
   509.570      30.8943      27.6530    
   517.812      31.0540      27.6565    
   526.187      31.1498      27.7985    
   534.698      31.2847      28.2058    
   543.346      31.6762      28.7535    
   552.134      32.3536      29.3103    
   561.065      33.2344      29.5372    
   570.139      34.0865      29.5857    
   579.361      34.8060      29.5097    
   588.732      35.4652      29.4124    
   598.254      36.0729      29.3017    
   607.930      36.6519      29.1908    
   617.763      37.2176      29.0813    
   627.755      37.7944      28.9693    
   637.908      38.3790      28.8129    
   648.226      38.9469      28.5927    
   658.711      39.4391      28.3318    
   669.365      39.8651      28.0733    
   680.191      40.2342      27.8554    
   691.193      40.5811      27.6713    
   702.372      40.9019      27.5165    
   713.733      41.2118      27.4391    
   725.277      41.5850      27.4150    
   737.008      42.0065      27.3909    
   748.928      42.4696      27.3668    
   761.042      42.9901      27.3389    
   773.351      43.5984      27.2699    
   785.859      44.2542      27.0584    
   798.570      44.8036      26.7316    
   811.486      45.2814      26.4088    
   824.611      45.7200      26.0895    
   837.949      46.1321      25.7739    
   851.502      46.5234      25.4571    
   865.274      46.8962      25.1385    
   879.269      47.2475      24.8189    
   893.491      47.5817      24.5032    
   907.943      47.9035      24.1913    
   922.628      48.2204      23.8831    
   937.551      48.5246      23.5590    
   952.715      48.8124      23.2341    
   968.124      49.0820      22.9091    
   983.783      49.3386      22.5882    
   999.695      49.5866      22.2688    
   1015.86      49.8314      21.9509    
   1032.29      50.0596      21.6119    
   1048.99      50.2681      21.2739    
   1065.96      50.4555      20.9370    
   1083.20      50.6261      20.6052    
   1100.72      50.7823      20.2783    
   1118.52      50.9249      19.9561    
   1136.61      51.0546      19.6386    
   1155.00      51.1722      19.3259    
   1173.68      51.2785      19.0180    
   1192.66      51.3738      18.7143    
   1211.95      51.4588      18.4152    
   1231.55      51.5349      18.1203    
   1251.47      51.6021      17.8255    
   1271.72      51.6590      17.5301    
   1292.29      51.6991      17.2330    
   1313.19      51.7230      16.9402    
   1334.43      51.7324      16.6523    
   1356.01      51.7279      16.3691    
   1377.94      51.7096      16.0903    
   1400.23      51.6773      15.8158    
   1422.88      51.6305      15.5454    
   1445.89      51.5690      15.2793    
   1469.28      51.4933      15.0167    
   1493.04      51.4028      14.7568    
   1517.19      51.2925      14.4942    
   1541.73      51.1597      14.2353    
   1566.67      51.0039      13.9809    
   1592.01      50.8243      13.7306    
   1617.76      50.6192      13.4844    
   1643.92      50.3861      13.2421    
   1670.51      50.1221      13.0041    
   1697.53      49.8239      12.7702    
   1724.99      49.4914      12.5404    
   1752.89      49.1134      12.3058    
   1781.24      48.6789      12.0724    
   1810.05      48.1781      11.8407    
   1839.32      47.5988      11.6137    
   1869.07      46.9256      11.3910    
   1899.30      46.1355      11.1724    
   1930.02      45.1937      10.9576    
   1961.24      44.0470      10.7469    
   1992.96      42.6065      10.5407    
   2025.20      40.7193      10.3435    
   2057.95      38.0172      10.1385    
   2091.24      33.3254      9.93584    
   2121.50     0.537214      9.75786    
   2121.70     0.535749      27.4284    
   2125.06      20.3955      27.3696    
   2159.43      32.1554      26.7804    
   2194.36      29.5656      26.2046    
   2201.80      13.1232      26.0848    
   2202.00      13.1439      38.5454    
   2229.85      37.6075      37.8534    
   2265.92      42.8686      36.9881    
   2302.57      46.1724      36.1431    
   2339.81      48.6155      35.3172    
   2377.66      50.5369      34.5116    
   2416.11      52.0890      33.7242    
   2455.19      53.3494      32.9558    
   2494.90      54.3527      32.2050    
   2535.26      55.0928      31.4720    
   2576.26      55.4892      30.7570    
   2617.93      55.1214      30.0583    
   2645.30      47.4320      29.6139    
   2645.50      47.4376      34.2684    
   2660.27      55.1840      33.9885    
   2703.30      58.0215      33.1949    
   2747.03      59.5605      32.4207    
   2791.46      60.7071      31.6658    
   2836.61      61.6255      30.9297    
   2882.49      62.3688      30.2110    
   2929.11      62.9433      29.5107    
   2976.48      63.2825      28.8275    
   3024.63      62.1169      28.1599    
   3026.40      60.5309      28.1358    
   3026.60      60.5336      29.8585    
   3073.55      64.4574      29.2107    
   3123.26      65.3424      28.5503    
   3173.78      65.9810      27.9062    
   3225.11      66.4411      27.2770    
   3277.27      66.5489      26.6641    
   3295.90      64.8614      26.4510    
   3296.10      64.8636      27.5800    
   3330.28      67.3053      27.1880    
   3384.15      68.1329      26.5894    
   3438.88      68.7545      26.0011    
   3494.50      69.2856      25.4237    
   3551.02      69.7561      24.8552    
   3608.46      70.1805      24.2985    
   3666.82      70.5679      23.7519    
   3726.13      70.9235      23.2156    
   3786.40      71.2497      22.6878    
   3847.64      71.5499      22.1718    
   3909.87      71.8275      21.6655    
   3973.11      72.0845      21.1695    
   4037.38      72.3218      20.6818    
   4102.68      72.5401      20.2043    
   4169.03      72.7424      19.7372    
   4236.46      72.9290      19.2783    
   4304.98      73.1006      18.8298    
   4374.62      73.2589      18.3901    
   4445.37      73.4040      17.9594    
   4517.27      73.5370      17.5375    
   4590.33      73.6585      17.1247    
   4664.58      73.7693      16.7204    
   4740.03      73.8698      16.3247    
   4816.69      73.9605      15.9376    
   4894.60      74.0423      15.5587    
   4973.77      74.1154      15.1879    
   5054.21      74.1800      14.8252    
   5135.96      74.2369      14.4704    
   5219.03      74.2863      14.1236    
   5303.44      74.3288      13.7843    
   5389.22      74.3644      13.4525    
   5476.39      74.3937      13.1282    
   5564.97      74.4168      12.8110    
   5654.98      74.4341      12.5011    
   5746.44      74.4456      12.1981    
   5839.39      74.4519      11.9022    
   5933.83      74.4531      11.6129    
   6029.81      74.4493      11.3302    
   6127.33      74.4407      11.0542    
   6226.44      74.4275      10.7843    
   6327.15      74.4100      10.5209    
   6429.48      74.3881      10.2634    
   6533.48      74.3620      10.0121    
   6639.15      74.3319      9.76641    
   6746.54      74.2976      9.52668    
   6855.65      74.2595      9.29264    
   6966.54      74.2175      9.06404    
   7079.22      74.1718      8.84084    
   7193.72      74.1221      8.62279    
   7310.07      74.0686      8.41010    
   7428.31      74.0113      8.20221    
   7548.45      73.9499      7.99961    
   7670.54      73.8846      7.80150    
   7794.61      73.8152      7.60841    
   7920.68      73.7415      7.41965    
   8048.79      73.6633      7.23560    
   8178.98      73.5806      7.05599    
   8311.26      73.4929      6.88054    
   8445.69      73.3998      6.70940    
   8582.29      73.3010      6.54238    
   8721.11      73.1963      6.37954    
   8862.16      73.0849      6.22024    
   9005.50      72.9658      6.06517    
   9151.16      72.8388      5.91366    
   9299.17      72.7023      5.76585    
   9449.58      72.5554      5.62157    
   9602.42      72.3965      5.48071    
   9757.73      72.2235      5.34339    
   9915.55      72.0389      5.20926    
   10075.9      71.8332      5.06622    
   10238.9      71.5903      4.92680    
   10404.5      71.3112      4.79093    
   10572.8      70.9841      4.65851    
   10743.8      70.5910      4.52948    
   10917.6      70.1000      4.40374    
   11094.2      69.4473      4.28123    
   11273.6      68.4707      4.16186    
   11455.9      66.4777      4.04556    
   11563.6      52.2359      3.97926    
   11563.8      52.2369      10.4400    
   11641.2      65.9142      10.3166    
   11829.5      68.4505      10.0256    
   12020.8      69.4959      9.74292    
   12215.3      70.0966      9.46818    
   12412.8      70.4504      9.20119    
   12613.6      70.6151      8.94172    
   12817.6      70.5821      8.68958    
   13025.0      70.2352      8.44455    
   13235.6      68.5077      8.20643    
   13272.5      62.4930      8.16585    
   13272.7      62.4933      11.3782    
   13449.7      70.2552      11.1468    
   13667.2      71.0704      10.8729    
   13879.8      68.8067      10.6158    
   13880.0      68.8083      11.9295    
   13888.3      70.4412      11.9199    
   14112.9      72.2655      11.6637    
   14341.2      72.9742      11.4102    
   14573.1      73.5068      11.1595    
   14808.9      73.9451      10.9118    
   15048.4      74.3205      10.6672    
   15291.8      74.6489      10.4259    
   15539.1      74.9405      10.1880    
   15790.4      75.2017      9.95343    
   16045.8      75.4374      9.72244    
   16305.4      75.6511      9.49503    
   16569.1      75.8456      9.27128    
   16837.1      76.0230      9.05122    
   17109.4      76.1853      8.83491    
   17386.1      76.3338      8.62236    
   17667.4      76.4699      8.41361    
   17953.1      76.5946      8.20866    
   18243.5      76.7090      8.00753    
   18538.6      76.8139      7.81022    
   18838.4      76.9099      7.61672    
   19143.1      76.9978      7.42703    
   19452.7      77.0781      7.24113    
   19767.4      77.1514      7.05901    
   20087.1      77.2182      6.88064    
   20412.0      77.2790      6.70599    
   20742.1      77.3340      6.53504    
   21077.6      77.3837      6.36774    
   21418.5      77.4285      6.20408    
   21765.0      77.4686      6.04401    
   22117.0      77.5043      5.88748    
   22474.7      77.5360      5.73447    
   22838.2      77.5639      5.58490    
   23207.6      77.5881      5.43876    
   23583.0      77.6090      5.29597    
   23964.4      77.6268      5.15651    
   24352.0      77.6416      5.02031    
   24745.9      77.6536      4.88733    
   25146.2      77.6630      4.75751    
   25552.9      77.6699      4.63080    
   25966.2      77.6746      4.50716    
   26386.1      77.6771      4.38651    
   26812.9      77.6776      4.26881    
   27246.6      77.6762      4.15401    
   27687.3      77.6731      4.04206    
   28135.1      77.6684      3.93288    
   28590.2      77.6622      3.82645    
   29052.6      77.6552      3.72269    
   29522.5      77.6565      3.62156    
   30000.0      77.6045      3.52300    
