 rb, Z=37, (Energy (eV),f1,f2)
   10.0000     -9999.00     0.696833E-01
   10.1617     -9999.00     0.710428E-01
   10.3261     -9999.00     0.725292E-01
   10.4931     -9999.00     0.744146E-01
   10.6628     -9999.00     0.763490E-01
   10.8353     -9999.00     0.783337E-01
   11.0106     -9999.00     0.803700E-01
   11.1886     -9999.00     0.829975E-01
   11.3696     -9999.00     0.859930E-01
   11.5535     -9999.00     0.890967E-01
   11.7404     -9999.00     0.923123E-01
   11.9303     -9999.00     0.956440E-01
   12.1232     -9999.00     0.992070E-01
   12.3193     -9999.00     0.103755    
   12.5186     -9999.00     0.108511    
   12.7210     -9999.00     0.113485    
   12.9268     -9999.00     0.118687    
   13.1359     -9999.00     0.125355    
   13.3483     -9999.00     0.132968    
   13.5642     -9999.00     0.141044    
   13.7836     -9999.00     0.150192    
   14.0066     -9999.00     0.160776    
   14.2331     -9999.00     0.172105    
   14.4633     -9999.00     0.184233    
   14.6973     -9999.00     0.199124    
   14.9350     -9999.00     0.218760    
   15.1765     -9999.00     0.414294    
   15.4220     -9999.00     0.889737    
   15.6714     -9999.00      1.91082    
   15.9249     -9999.00      4.10371    
   16.1825     -9999.00      8.81322    
   16.4442     -9999.00      9.74157    
   16.7102     -9999.00      10.2630    
   16.9805     -9999.00      10.8124    
   17.2551     -9999.00      11.3911    
   17.5342     -9999.00      12.0009    
   17.8178     -9999.00      12.6432    
   18.1060     -9999.00      13.2106    
   18.3989     -9999.00      13.6342    
   18.6964     -9999.00      14.0713    
   18.9988     -9999.00      14.5225    
   19.3061     -9999.00      14.9881    
   19.6184     -9999.00      15.4687    
   19.9357     -9999.00      15.9304    
   20.2582     -9999.00      16.3239    
   20.5858     -9999.00      16.7272    
   20.9188     -9999.00      17.1404    
   21.2571     -9999.00      17.5637    
   21.6009     -9999.00      17.9976    
   21.9503     -9999.00      18.4422    
   22.3053     -9999.00      18.8977    
   22.6661     -9999.00      19.3645    
   23.0327     -9999.00      19.7441    
   23.4053     -9999.00      19.9536    
   23.7838     -9999.00      20.1653    
   24.1685     -9999.00      20.3793    
   24.5594     -9999.00      20.5955    
   24.9566     -9999.00      20.8140    
   25.3603     -9999.00      21.0349    
   25.7705     -9999.00      21.2581    
   26.1873     -9999.00      20.9385    
   26.6109     -9999.00      20.6113    
   27.0413     -9999.00      20.2892    
   27.4786     -9999.00      19.9721    
   27.9231     -9999.00      19.6179    
   28.3747     -9999.00      18.8853    
   28.8337     -9999.00      18.1801    
   29.3000      13.0655      17.5013    
   29.7739      13.6343      16.8478    
   30.2555      14.1644      16.2187    
   30.7449      14.6787      15.6131    
   31.2421      15.2658      15.0301    
   31.7475      16.0401      14.2168    
   32.2609      16.4451      13.1815    
   32.7827      16.6505      12.2216    
   33.3130      16.7498      11.3316    
   33.8518      16.7722      10.5064    
   34.3993      16.7367      9.74125    
   34.9557      16.6564      9.03186    
   35.5211      16.5409      8.37413    
   36.0956      16.3974      7.76430    
   36.6794      16.2315      7.19888    
   37.2727      16.0477      6.67464    
   37.8755      15.8489      6.18858    
   38.4882      15.6362      5.73789    
   39.1107      15.4056      5.32174    
   39.7432      15.1759      4.96640    
   40.3861      14.9581      4.63479    
   41.0393      14.7460      4.32532    
   41.7031      14.5368      4.03651    
   42.3776      14.3302      3.76699    
   43.0630      14.1263      3.51546    
   43.7595      13.9249      3.28074    
   44.4673      13.7264      3.06168    
   45.1865      13.5308      2.85725    
   45.9174      13.3382      2.66646    
   46.6600      13.1488      2.48842    
   47.4147      12.9628      2.32227    
   48.1816      12.7805      2.16721    
   48.9609      12.6031      2.02250    
   49.7528      12.4304      1.88159    
   50.5576      12.2554      1.74799    
   51.3753      12.0804      1.62386    
   52.2062      11.9066      1.50856    
   53.0506      11.7342      1.40144    
   53.9087      11.5629      1.30193    
   54.7806      11.3924      1.20948    
   55.6667      11.2210      1.12360    
   56.5670      11.0428      1.04381    
   57.4820      10.8677     0.992020    
   58.4117      10.7075     0.946484    
   59.3564      10.5550     0.903038    
   60.3165      10.4070     0.861585    
   61.2921      10.2619     0.822035    
   62.2834      10.1182     0.784302    
   63.2908      9.97388     0.748301    
   64.3145      9.82197     0.713951    
   65.3547      9.67225     0.702303    
   66.4118      9.53431     0.693770    
   67.4859      9.40176     0.685340    
   68.5775      9.27079     0.677013    
   69.6867      9.14135     0.673057    
   70.8138      9.01567     0.670594    
   71.9591      8.89149     0.668139    
   73.1230      8.76606     0.665693    
   74.3057      8.64030     0.667955    
   75.5076      8.51619     0.671485    
   76.7289      8.39057     0.676306    
   77.9699      8.26585     0.683734    
   79.2310      8.13956     0.691245    
   80.5125      8.01101     0.703644    
   81.8147      7.88388     0.718507    
   83.1380      7.75719     0.733684    
   84.4827      7.62983     0.749181    
   85.8491      7.49986     0.762427    
   87.2377      7.36527     0.775589    
   88.6487      7.22519     0.788978    
   90.0825      7.07858     0.802598    
   91.5395      6.92010     0.817667    
   93.0201      6.75599     0.840922    
   94.5246      6.58566     0.864837    
   96.0535      6.40438     0.889432    
   97.6071      6.19894     0.914728    
   99.1858      5.98093     0.965974    
   100.790      5.75257      1.02160    
   102.420      5.48986      1.08341    
   104.077      5.19676      1.19999    
   105.760      4.88690      1.35034    
   107.471      4.51152      1.61097    
   109.209      4.21037      2.10889    
   110.975      4.36298      2.61845    
   112.770      4.65202      2.77437    
   114.594      4.75819      2.54704    
   116.448      4.39079      2.25945    
   118.331      3.94565      2.46738    
   120.245      3.62949      2.72927    
   122.190      3.36364      2.98313    
   124.166      3.10166      3.26059    
   126.175      2.84250      3.58013    
   128.215      2.60752      3.94302    
   130.289      2.40451      4.34268    
   132.397      2.26196      4.78285    
   134.538      2.14884      5.17940    
   136.714      2.04269      5.59880    
   138.925      1.98300      6.05217    
   141.172      1.95945      6.47463    
   143.456      1.93517      6.89553    
   145.776      1.95321      7.34379    
   148.134      1.97937      7.73205    
   150.530      1.99933      8.13780    
   152.964      2.02702      8.56484    
   155.439      2.09596      9.01429    
   157.953      2.18310      9.41778    
   160.507      2.26421      9.82508    
   163.103      2.34471      10.2500    
   165.742      2.44090      10.6933    
   168.422      2.56045      11.1557    
   171.146      2.72589      11.6382    
   173.915      2.92074      12.0874    
   176.727      3.12733      12.5423    
   179.586      3.38713      13.0143    
   182.491      3.67567      13.4378    
   185.442      3.96717      13.8580    
   188.442      4.31301      14.2914    
   191.489      4.68970      14.6314    
   194.587      5.04039      14.9385    
   197.734      5.36986      15.2520    
   200.932      5.70947      15.5657    
   204.182      6.04802      15.8651    
   207.485      6.38746      16.1703    
   210.840      6.73667      16.4813    
   214.251      7.10220      16.7983    
   217.716      7.49079      17.1214    
   221.237      7.91300      17.4507    
   224.816      8.38822      17.7864    
   228.452      9.00708      18.1285    
   232.147      9.63664      18.1769    
   235.902      10.1463      18.1785    
   239.717      10.5526      18.1802    
   243.595      10.8904      18.2109    
   247.535      11.2292      18.3272    
   251.538      11.5939      18.4443    
   255.607      11.9673      18.5621    
   259.741      12.3476      18.6807    
   263.942      12.7356      18.8000    
   268.211      13.1336      18.9200    
   272.549      13.5457      19.0409    
   276.957      13.9826      19.1625    
   281.437      14.4580      19.2504    
   285.989      14.9247      19.2836    
   290.615      15.3598      19.3168    
   295.315      15.7953      19.3501    
   300.092      16.2355      19.3835    
   304.945      16.6871      19.4169    
   309.878      17.1613      19.4504    
   314.890      17.6935      19.4839    
   319.983      18.2749      19.3816    
   325.158      18.7838      19.1986    
   330.418      19.2141      19.0172    
   335.762      19.6151      18.8376    
   341.192      19.9905      18.6596    
   346.711      20.3441      18.4834    
   352.319      20.6766      18.3088    
   358.017      20.9803      18.1358    
   363.808      21.2635      18.0096    
   369.692      21.5671      17.8997    
   375.672      21.8864      17.7908    
   381.748      22.2173      17.6823    
   387.922      22.5675      17.5660    
   394.197      22.9378      17.4319    
   400.573      23.3133      17.2334    
   407.052      23.6436      17.0118    
   413.635      23.9421      16.7935    
   420.326      24.2245      16.5778    
   427.124      24.4937      16.3648    
   434.032      24.7524      16.1544    
   441.052      25.0043      15.9467    
   448.186      25.2513      15.7395    
   455.435      25.4931      15.5245    
   462.802      25.7240      15.3058    
   470.287      25.9407      15.0864    
   477.894      26.1470      14.8695    
   485.623      26.3446      14.6563    
   493.478      26.5357      14.4462    
   501.459      26.7214      14.2389    
   509.570      26.9028      14.0344    
   517.812      27.0825      13.8312    
   526.187      27.2601      13.6255    
   534.698      27.4337      13.4129    
   543.346      27.5954      13.1986    
   552.134      27.7532      12.9874    
   561.065      27.9064      12.7670    
   570.139      28.0388      12.5456    
   579.361      28.1613      12.3350    
   588.732      28.2799      12.1293    
   598.254      28.3943      11.9280    
   607.930      28.5052      11.7304    
   617.763      28.6138      11.5360    
   627.755      28.7228      11.3441    
   637.908      28.8315      11.1464    
   648.226      28.9355      10.9388    
   658.711      29.0213      10.7266    
   669.365      29.0831      10.5184    
   680.191      29.1278      10.3368    
   691.193      29.1887      10.1753    
   702.372      29.2612      10.0199    
   713.733      29.3471      9.84877    
   725.277      29.4192      9.66818    
   737.008      29.4819      9.49079    
   748.928      29.5398      9.31666    
   761.042      29.5945      9.14561    
   773.351      29.6473      8.97615    
   785.859      29.6989      8.80413    
   798.570      29.7419      8.63078    
   811.486      29.7782      8.46096    
   824.611      29.8098      8.29442    
   837.949      29.8375      8.13111    
   851.502      29.8618      7.96977    
   865.274      29.8826      7.81015    
   879.269      29.8983      7.65243    
   893.491      29.9096      7.49794    
   907.943      29.9175      7.34652    
   922.628      29.9228      7.19811    
   937.551      29.9249      7.04944    
   952.715      29.9220      6.90302    
   968.124      29.9142      6.75894    
   983.783      29.9019      6.61784    
   999.695      29.8852      6.48002    
   1015.86      29.8647      6.34543    
   1032.29      29.8414      6.21593    
   1048.99      29.8173      6.08696    
   1065.96      29.7881      5.95837    
   1083.20      29.7539      5.83239    
   1100.72      29.7154      5.70906    
   1118.52      29.6725      5.58831    
   1136.61      29.6254      5.47018    
   1155.00      29.5738      5.35450    
   1173.68      29.5177      5.24123    
   1192.66      29.4570      5.13040    
   1211.95      29.3915      5.02195    
   1231.55      29.3217      4.91584    
   1251.47      29.2469      4.81004    
   1271.72      29.1664      4.70463    
   1292.29      29.0768      4.59924    
   1313.19      28.9781      4.49628    
   1334.43      28.8706      4.39564    
   1356.01      28.7535      4.29725    
   1377.94      28.6262      4.20103    
   1400.23      28.4875      4.10688    
   1422.88      28.3361      4.01473    
   1445.89      28.1710      3.92486    
   1469.28      27.9912      3.83577    
   1493.04      27.7927      3.74682    
   1517.19      27.5710      3.65225    
   1541.73      27.3160      3.55898    
   1566.67      27.0247      3.46804    
   1592.01      26.6900      3.37944    
   1617.76      26.3007      3.29312    
   1643.92      25.8405      3.20902    
   1670.51      25.2835      3.12708    
   1697.53      24.5866      3.04723    
   1724.99      23.6678      2.96942    
   1752.89      22.3359      2.88900    
   1781.24      19.9255      2.80978    
   1804.30      4.47116      2.74784    
   1804.50      4.47535      11.5981    
   1810.05      15.7986      11.5078    
   1839.32      20.1284      11.0470    
   1863.80      14.3771      10.6813    
   1864.00      14.3918      14.8890    
   1869.07      19.8218      14.8370    
   1899.30      23.4852      14.5339    
   1930.02      25.1074      14.2370    
   1961.24      26.2065      13.9462    
   1992.96      26.9961      13.6613    
   2025.20      27.5089      13.3855    
   2057.95      27.2104      13.1122    
   2065.00      25.3302      13.0547    
   2065.20      25.3402      14.7486    
   2091.24      28.6552      14.5089    
   2125.06      29.6640      14.2077    
   2159.43      30.4102      13.9092    
   2194.36      31.0317      13.6132    
   2229.85      31.5718      13.3199    
   2265.92      32.0512      13.0301    
   2302.57      32.4820      12.7435    
   2339.81      32.8724      12.4606    
   2377.66      33.2287      12.1813    
   2416.11      33.5552      11.9056    
   2455.19      33.8550      11.6340    
   2494.90      34.1313      11.3665    
   2535.26      34.3867      11.1030    
   2576.26      34.6226      10.8435    
   2617.93      34.8413      10.5885    
   2660.27      35.0438      10.3374    
   2703.30      35.2314      10.0908    
   2747.03      35.4053      9.84833    
   2791.46      35.5667      9.61038    
   2836.61      35.7162      9.37689    
   2882.49      35.8548      9.14757    
   2929.11      35.9832      8.92274    
   2976.48      36.1022      8.70231    
   3024.63      36.2121      8.48616    
   3073.55      36.3139      8.27444    
   3123.26      36.4074      8.06675    
   3173.78      36.4943      7.86361    
   3225.11      36.5738      7.66477    
   3277.27      36.6470      7.46990    
   3330.28      36.7138      7.27916    
   3384.15      36.7752      7.09288    
   3438.88      36.8312      6.91044    
   3494.50      36.8820      6.73207    
   3551.02      36.9280      6.55772    
   3608.46      36.9696      6.38730    
   3666.82      37.0069      6.22078    
   3726.13      37.0402      6.05806    
   3786.40      37.0697      5.89908    
   3847.64      37.0957      5.74385    
   3909.87      37.1184      5.59227    
   3973.11      37.1379      5.44433    
   4037.38      37.1545      5.29984    
   4102.68      37.1683      5.15888    
   4169.03      37.1795      5.02129    
   4236.46      37.1882      4.88707    
   4304.98      37.1945      4.75612    
   4374.62      37.1988      4.62845    
   4445.37      37.2009      4.50384    
   4517.27      37.2011      4.38241    
   4590.33      37.1995      4.26401    
   4664.58      37.1962      4.14860    
   4740.03      37.1914      4.03608    
   4816.69      37.1850      3.92644    
   4894.60      37.1772      3.81954    
   4973.77      37.1682      3.71546    
   5054.21      37.1579      3.61397    
   5135.96      37.1464      3.51519    
   5219.03      37.1338      3.41889    
   5303.44      37.1203      3.32518    
   5389.22      37.1058      3.23389    
   5476.39      37.0905      3.14492    
   5564.97      37.0743      3.05839    
   5654.98      37.0573      2.97409    
   5746.44      37.0396      2.89202    
   5839.39      37.0213      2.81217    
   5933.83      37.0024      2.73438    
   6029.81      36.9828      2.65871    
   6127.33      36.9627      2.58503    
   6226.44      36.9421      2.51341    
   6327.15      36.9211      2.44369    
   6429.48      36.8995      2.37584    
   6533.48      36.8777      2.30986    
   6639.15      36.8553      2.24561    
   6746.54      36.8327      2.18316    
   6855.65      36.8096      2.12231    
   6966.54      36.7862      2.06320    
   7079.22      36.7626      2.00574    
   7193.72      36.7387      1.94981    
   7310.07      36.7144      1.89537    
   7428.31      36.6898      1.84250    
   7548.45      36.6649      1.79110    
   7670.54      36.6398      1.74111    
   7794.61      36.6145      1.69249    
   7920.68      36.5888      1.64523    
   8048.79      36.5629      1.59926    
   8178.98      36.5367      1.55456    
   8311.26      36.5102      1.51113    
   8445.69      36.4834      1.46891    
   8582.29      36.4563      1.42785    
   8721.11      36.4288      1.38795    
   8862.16      36.4009      1.34918    
   9005.50      36.3727      1.31147    
   9151.16      36.3440      1.27485    
   9299.17      36.3149      1.23924    
   9449.58      36.2852      1.20463    
   9602.42      36.2550      1.17100    
   9757.73      36.2242      1.13833    
   9915.55      36.1927      1.10655    
   10075.9      36.1604      1.07569    
   10238.9      36.1273      1.04570    
   10404.5      36.0933      1.01656    
   10572.8      36.0583     0.988242    
   10743.8      36.0221     0.960729    
   10917.6      35.9846     0.933996    
   11094.2      35.9455     0.908023    
   11273.6      35.9049     0.882786    
   11455.9      35.8622     0.858268    
   11641.2      35.8174     0.834447    
   11829.5      35.7701     0.811303    
   12020.8      35.7198     0.788819    
   12215.3      35.6660     0.766974    
   12412.8      35.6082     0.745753    
   12613.6      35.5455     0.725136    
   12817.6      35.4770     0.705108    
   13025.0      35.4013     0.685651    
   13235.6      35.3167     0.666749    
   13449.7      35.2206     0.648388    
   13667.2      35.1097     0.630550    
   13888.3      34.9786     0.613223    
   14112.9      34.8187     0.596390    
   14341.2      34.6151     0.580039    
   14573.1      34.3376     0.564155    
   14808.9      33.9105     0.548725    
   15048.4      33.0208     0.533737    
   15199.6      25.7196     0.524605    
   15199.8      25.7199      3.68556    
   15291.8      32.6205      3.65214    
   15539.1      33.9981      3.56470    
   15790.4      34.6009      3.47872    
   16045.8      34.9964      3.39422    
   16305.4      35.2915      3.31121    
   16569.1      35.5265      3.22968    
   16837.1      35.7210      3.14966    
   17109.4      35.8862      3.07115    
   17386.1      36.0289      2.99414    
   17667.4      36.1539      2.91862    
   17953.1      36.2644      2.84461    
   18243.5      36.3629      2.77209    
   18538.6      36.4512      2.70105    
   18838.4      36.5308      2.63149    
   19143.1      36.6027      2.56340    
   19452.7      36.6679      2.49675    
   19767.4      36.7272      2.43155    
   20087.1      36.7813      2.36777    
   20412.0      36.8305      2.30540    
   20742.1      36.8755      2.24442    
   21077.6      36.9165      2.18482    
   21418.5      36.9541      2.12658    
   21765.0      36.9884      2.06967    
   22117.0      37.0197      2.01409    
   22474.7      37.0483      1.95981    
   22838.2      37.0744      1.90681    
   23207.6      37.0982      1.85507    
   23583.0      37.1199      1.80457    
   23964.4      37.1396      1.75529    
   24352.0      37.1574      1.70721    
   24745.9      37.1736      1.66030    
   25146.2      37.1881      1.61456    
   25552.9      37.2012      1.56994    
   25966.2      37.2130      1.52644    
   26386.1      37.2235      1.48403    
   26812.9      37.2327      1.44270    
   27246.6      37.2409      1.40241    
   27687.3      37.2481      1.36314    
   28135.1      37.2543      1.32489    
   28590.2      37.2597      1.28762    
   29052.6      37.2645      1.25131    
   29522.5      37.2718      1.21595    
   30000.0      37.2605      1.18152    
