 re, Z=75, (Energy (eV),f1,f2)
   10.0000     -9999.00      1.82090    
   10.1617     -9999.00      1.91145    
   10.3261     -9999.00      2.00650    
   10.4931     -9999.00      2.10629    
   10.6628     -9999.00      2.21103    
   10.8353     -9999.00      2.28753    
   11.0106     -9999.00      2.36020    
   11.1886     -9999.00      2.43518    
   11.3696     -9999.00      2.51255    
   11.5535     -9999.00      2.59237    
   11.7404     -9999.00      2.67598    
   11.9303     -9999.00      2.76272    
   12.1232     -9999.00      2.85227    
   12.3193     -9999.00      2.94472    
   12.5186     -9999.00      3.04017    
   12.7210     -9999.00      3.14012    
   12.9268     -9999.00      3.24361    
   13.1359     -9999.00      3.35052    
   13.3483     -9999.00      3.46095    
   13.5642     -9999.00      3.57622    
   13.7836     -9999.00      3.70512    
   14.0066     -9999.00      3.83867    
   14.2331     -9999.00      3.97703    
   14.4633     -9999.00      4.12039    
   14.6973     -9999.00      4.25838    
   14.9350     -9999.00      4.38565    
   15.1765     -9999.00      4.51673    
   15.4220     -9999.00      4.65171    
   15.6714     -9999.00      4.79073    
   15.9249     -9999.00      4.93463    
   16.1825     -9999.00      5.08974    
   16.4442     -9999.00      5.24972    
   16.7102     -9999.00      5.41472    
   16.9805     -9999.00      5.58491    
   17.2551     -9999.00      5.76046    
   17.5342     -9999.00      5.94151    
   17.8178     -9999.00      6.12826    
   18.1060     -9999.00      6.29907    
   18.3989     -9999.00      6.46564    
   18.6964     -9999.00      6.63662    
   18.9988     -9999.00      6.81211    
   19.3061     -9999.00      6.97707    
   19.6184     -9999.00      7.07637    
   19.9357     -9999.00      7.17708    
   20.2582     -9999.00      7.27922    
   20.5858     -9999.00      7.38281    
   20.9188     -9999.00      7.48788    
   21.2571     -9999.00      7.59445    
   21.6009     -9999.00      7.63348    
   21.9503     -9999.00      7.66776    
   22.3053     -9999.00      7.70219    
   22.6661     -9999.00      7.73678    
   23.0327     -9999.00      7.77151    
   23.4053     -9999.00      7.76601    
   23.7838     -9999.00      7.70976    
   24.1685     -9999.00      7.65392    
   24.5594     -9999.00      7.59849    
   24.9566     -9999.00      7.53039    
   25.3603     -9999.00      7.28378    
   25.7705     -9999.00      7.04524    
   26.1873     -9999.00      6.81452    
   26.6109     -9999.00      6.56817    
   27.0413     -9999.00      6.30065    
   27.4786     -9999.00      6.04402    
   27.9231     -9999.00      5.79784    
   28.3747     -9999.00      5.57090    
   28.8337     -9999.00      5.35297    
   29.3000      7.45980      5.14357    
   29.7739      7.36294      4.94237    
   30.2555      7.24678      4.74037    
   30.7449      7.08314      4.53441    
   31.2421      6.85861      4.33739    
   31.7475      6.53946      4.24252    
   32.2609      6.29668      4.22705    
   32.7827      6.07314      4.21164    
   33.3130      5.84367      4.20238    
   33.8518      5.61474      4.20700    
   34.3993      5.37524      4.21161    
   34.9557      5.10146      4.21624    
   35.5211      4.80331      4.28453    
   36.0956      4.51157      4.36092    
   36.6794      4.19978      4.43867    
   37.2727      3.83503      4.51781    
   37.8755      3.36519      4.63632    
   38.4882      2.75414      4.79723    
   39.1107      2.13477      5.41405    
   39.7432      1.69354      6.11019    
   40.3861      1.38324      6.89584    
   41.0393      1.22726      7.78251    
   41.7031      1.34224      8.78319    
   42.3776      1.59985      9.45488    
   43.0630      1.85372      10.1729    
   43.7595      2.28214      10.9454    
   44.4673      3.01143      11.4042    
   45.1865      3.50293      11.6465    
   45.9174      3.89620      11.8940    
   46.6600      4.29832      12.1467    
   47.4147      4.74159      12.2778    
   48.1816      5.05566      12.3389    
   48.9609      5.22197      12.3364    
   49.7528      5.26170      12.5160    
   50.5576      5.31147      12.7507    
   51.3753      5.20956      13.0680    
   52.2062      5.31433      13.8097    
   53.0506      5.64480      14.5261    
   53.9087      6.25013      15.1355    
   54.7806      6.83899      15.6271    
   55.6667      7.50407      16.1347    
   56.5670      8.29623      16.4858    
   57.4820      9.41298      16.7915    
   58.4117      10.2776      16.7223    
   59.3564      11.0242      16.6439    
   60.3165      11.7455      16.5603    
   61.2921      12.4985      16.4772    
   62.2834      13.3278      16.2475    
   63.2908      14.0455      15.9197    
   64.3145      14.7858      15.5411    
   65.3547      15.4539      15.0453    
   66.4118      16.0988      14.3684    
   67.4859      16.4551      13.5908    
   68.5775      16.5875      12.8554    
   69.6867      16.6272      12.3754    
   70.8138      16.7019      11.9348    
   71.9591      16.7789      11.5100    
   73.1230      16.8356      11.1003    
   74.3057      16.8700      10.7051    
   75.5076      16.8811      10.3240    
   76.7289      16.8676      9.95654    
   77.9699      16.8241      9.60382    
   79.2310      16.7642      9.28503    
   80.5125      16.6924      8.97680    
   81.8147      16.6041      8.67882    
   83.1380      16.4953      8.39071    
   84.4827      16.3626      8.11219    
   85.8491      16.1946      7.84291    
   87.2377      15.9457      7.62633    
   88.6487      15.7402      7.48414    
   90.0825      15.5550      7.34460    
   91.5395      15.3607      7.20767    
   93.0201      15.1389      7.07328    
   94.5246      14.8493      6.99964    
   96.0535      14.6210      7.00289    
   97.6071      14.4195      7.00615    
   99.1858      14.2247      7.00940    
   100.790      14.0204      7.01266    
   102.420      13.7606      7.03196    
   104.077      13.5319      7.15594    
   105.760      13.3488      7.28210    
   107.471      13.1840      7.41049    
   109.209      13.0257      7.54114    
   110.975      12.8519      7.69441    
   112.770      12.7141      7.88463    
   114.594      12.6012      8.07956    
   116.448      12.5065      8.27930    
   118.331      12.4288      8.48398    
   120.245      12.3724      8.69373    
   122.190      12.3276      8.89018    
   124.166      12.2861      9.08942    
   126.175      12.2514      9.29313    
   128.215      12.2247      9.50141    
   130.289      12.2067      9.71434    
   132.397      12.1982      9.93206    
   134.538      12.2004      10.1547    
   136.714      12.2159      10.3822    
   138.925      12.2541      10.6054    
   141.172      12.2903      10.8169    
   143.456      12.3301      11.0325    
   145.776      12.3779      11.2525    
   148.134      12.4386      11.4769    
   150.530      12.5335      11.7058    
   152.964      12.6324      11.8759    
   155.439      12.7057      12.0404    
   157.953      12.7661      12.2072    
   160.507      12.8162      12.3763    
   163.103      12.8500      12.5478    
   165.742      12.8618      12.7545    
   168.422      12.8971      12.9888    
   171.146      12.9518      13.2273    
   173.915      13.0169      13.4703    
   176.727      13.0923      13.7177    
   179.586      13.1791      13.9696    
   182.491      13.2894      14.2222    
   185.442      13.3994      14.4535    
   188.442      13.5046      14.6886    
   191.489      13.6115      14.9274    
   194.587      13.7213      15.1702    
   197.734      13.8349      15.4169    
   200.932      13.9524      15.6676    
   204.182      14.0739      15.9224    
   207.485      14.1973      16.1813    
   210.840      14.3239      16.4521    
   214.251      14.4627      16.7324    
   217.716      14.6124      17.0174    
   221.237      14.7723      17.3074    
   224.816      14.9433      17.6022    
   228.452      15.1261      17.9021    
   232.147      15.3222      18.2071    
   235.902      15.5338      18.5173    
   239.717      15.7648      18.8328    
   243.595      16.0435      19.1445    
   247.535      16.3183      19.4092    
   251.538      16.5826      19.6775    
   255.607      16.8515      19.9496    
   259.741      17.1292      20.2255    
   263.942      17.4196      20.5051    
   268.211      17.7270      20.7886    
   272.549      18.0584      21.0761    
   276.957      18.4741      21.3438    
   281.437      18.8598      21.5149    
   285.989      19.2050      21.6874    
   290.615      19.5405      21.8613    
   295.315      19.8713      22.0366    
   300.092      20.2016      22.2133    
   304.945      20.5331      22.3878    
   309.878      20.8646      22.5621    
   314.890      21.1978      22.7378    
   319.983      21.5352      22.9148    
   325.158      21.8786      23.0932    
   330.418      22.2308      23.2730    
   335.762      22.5968      23.4542    
   341.192      22.9968      23.6302    
   346.711      23.3874      23.7522    
   352.319      23.7643      23.8750    
   358.017      24.1353      23.9983    
   363.808      24.5065      24.1223    
   369.692      24.8812      24.2469    
   375.672      25.2628      24.3722    
   381.748      25.6680      24.4981    
   387.922      26.0957      24.5830    
   394.197      26.4900      24.6296    
   400.573      26.8605      24.6763    
   407.052      27.2136      24.7231    
   413.635      27.5410      24.7700    
   420.326      27.8423      24.8657    
   427.124      28.1745      24.9964    
   434.032      28.5410      25.1279    
   441.052      28.9352      25.2600    
   448.186      29.3532      25.3572    
   455.435      29.7620      25.4347    
   462.802      30.1624      25.5126    
   470.287      30.5653      25.5906    
   477.894      30.9729      25.6689    
   485.623      31.3875      25.7475    
   493.478      31.8115      25.8262    
   501.459      32.2480      25.9052    
   509.570      32.7016      25.9845    
   517.812      33.1808      26.0640    
   526.187      33.7056      26.1437    
   534.698      34.3880      26.2237    
   543.346      34.9114      25.9053    
   552.134      35.3291      25.7609    
   561.065      35.7132      25.5951    
   570.139      35.9858      25.4415    
   579.361      36.2664      25.4409    
   588.732      36.5881      25.4819    
   598.254      36.9733      25.5498    
   607.930      37.4087      25.6176    
   617.763      37.8968      25.6857    
   627.755      38.4785      25.7451    
   637.908      39.1403      25.6942    
   648.226      39.8137      25.4805    
   658.711      40.3530      25.1622    
   669.365      40.7949      24.8477    
   680.191      41.1718      24.5812    
   691.193      41.5404      24.3515    
   702.372      41.9310      24.1329    
   713.733      42.3223      23.8872    
   725.277      42.6855      23.6240    
   737.008      43.0276      23.3636    
   748.928      43.3557      23.1059    
   761.042      43.6744      22.8507    
   773.351      43.9889      22.5938    
   785.859      44.2960      22.3246    
   798.570      44.5807      22.0462    
   811.486      44.8478      21.7710    
   824.611      45.1015      21.4993    
   837.949      45.3451      21.2309    
   851.502      45.5792      20.9625    
   865.274      45.8035      20.6942    
   879.269      46.0157      20.4264    
   893.491      46.2176      20.1617    
   907.943      46.4114      19.9003    
   922.628      46.6017      19.6421    
   937.551      46.7830      19.3751    
   952.715      46.9532      19.1085    
   968.124      47.1112      18.8430    
   983.783      47.2604      18.5809    
   999.695      47.4039      18.3197    
   1015.86      47.5462      18.0594    
   1032.29      47.6742      17.7795    
   1048.99      47.7849      17.5004    
   1065.96      47.8771      17.2218    
   1083.20      47.9538      16.9475    
   1100.72      48.0169      16.6773    
   1118.52      48.0672      16.4113    
   1136.61      48.1051      16.1493    
   1155.00      48.1309      15.8912    
   1173.68      48.1447      15.6368    
   1192.66      48.1467      15.3864    
   1211.95      48.1376      15.1398    
   1231.55      48.1191      14.8966    
   1251.47      48.0902      14.6505    
   1271.72      48.0481      14.4009    
   1292.29      47.9828      14.1463    
   1313.19      47.8951      13.8959    
   1334.43      47.7866      13.6500    
   1356.01      47.6571      13.4082    
   1377.94      47.5057      13.1704    
   1400.23      47.3311      12.9364    
   1422.88      47.1310      12.7062    
   1445.89      46.9034      12.4800    
   1469.28      46.6460      12.2575    
   1493.04      46.3552      12.0384    
   1517.19      46.0262      11.8219    
   1541.73      45.6534      11.6088    
   1566.67      45.2301      11.3992    
   1592.01      44.7479      11.1931    
   1617.76      44.1959      10.9908    
   1643.92      43.5597      10.7923    
   1670.51      42.8192      10.5969    
   1697.53      41.9453      10.4048    
   1724.99      40.8978      10.2160    
   1752.89      39.6055      10.0254    
   1781.24      37.9487      9.83648    
   1810.05      35.6943      9.64957    
   1839.32      32.2559      9.46627    
   1869.07      24.8946      9.28645    
   1882.80     -4.11723      9.20558    
   1883.00     -4.11373      27.5469    
   1899.30      24.9187      27.1608    
   1930.02      27.7689      26.4565    
   1948.80      9.56707      26.0404    
   1949.00      9.60336      38.6032    
   1961.24      29.6735      38.2684    
   1992.96      37.1125      37.4235    
   2025.20      41.0748      36.6057    
   2057.95      43.8955      35.7970    
   2091.24      46.0814      35.0057    
   2125.06      47.8452      34.2322    
   2159.43      49.2941      33.4759    
   2194.36      50.4846      32.7360    
   2229.85      51.4402      32.0125    
   2265.92      52.1516      31.3054    
   2302.57      52.5422      30.6139    
   2339.81      52.2342      29.9379    
   2367.20      44.7619      29.4570    
   2367.40      44.7808      34.3317    
   2377.66      51.7677      34.1010    
   2416.11      54.9882      33.2582    
   2455.19      56.6051      32.4363    
   2494.90      57.7790      31.6363    
   2535.26      58.6950      30.8552    
   2576.26      59.4071      30.0946    
   2617.93      59.9011      29.3531    
   2660.27      59.9434      28.6306    
   2681.50      57.4114      28.2793    
   2681.70      57.4246      30.1472    
   2703.30      60.5813      29.7953    
   2747.03      61.7713      29.1041    
   2791.46      62.5421      28.4292    
   2836.61      63.1215      27.7712    
   2882.49      63.5096      27.1290    
   2929.11      62.9627      26.5027    
   2931.60      61.8486      26.4700    
   2931.80      61.8568      27.6198    
   2976.48      64.5461      27.0504    
   3024.63      65.2865      26.4593    
   3073.55      65.8790      25.8763    
   3123.26      66.3935      25.3044    
   3173.78      66.8538      24.7425    
   3225.11      67.2722      24.1914    
   3277.27      67.6541      23.6489    
   3330.28      68.0051      23.1180    
   3384.15      68.3296      22.5964    
   3438.88      68.6285      22.0841    
   3494.50      68.9050      21.5827    
   3551.02      69.1612      21.0906    
   3608.46      69.3980      20.6082    
   3666.82      69.6173      20.1354    
   3726.13      69.8199      19.6716    
   3786.40      70.0072      19.2179    
   3847.64      70.1797      18.7726    
   3909.87      70.3391      18.3379    
   3973.11      70.4860      17.9106    
   4037.38      70.6205      17.4931    
   4102.68      70.7441      17.0842    
   4169.03      70.8571      16.6839    
   4236.46      70.9601      16.2921    
   4304.98      71.0537      15.9084    
   4374.62      71.1382      15.5331    
   4445.37      71.2143      15.1656    
   4517.27      71.2821      14.8061    
   4590.33      71.3423      14.4545    
   4664.58      71.3952      14.1105    
   4740.03      71.4411      13.7739    
   4816.69      71.4804      13.4449    
   4894.60      71.5135      13.1231    
   4973.77      71.5404      12.8082    
   5054.21      71.5615      12.5005    
   5135.96      71.5772      12.1997    
   5219.03      71.5876      11.9055    
   5303.44      71.5928      11.6179    
   5389.22      71.5931      11.3369    
   5476.39      71.5889      11.0623    
   5564.97      71.5800      10.7938    
   5654.98      71.5668      10.5317    
   5746.44      71.5494      10.2753    
   5839.39      71.5278      10.0249    
   5933.83      71.5022      9.78027    
   6029.81      71.4726      9.54130    
   6127.33      71.4392      9.30781    
   6226.44      71.4020      9.07985    
   6327.15      71.3611      8.85715    
   6429.48      71.3164      8.63970    
   6533.48      71.2680      8.42721    
   6639.15      71.2159      8.21985    
   6746.54      71.1601      8.01723    
   6855.65      71.1003      7.81951    
   6966.54      71.0368      7.62649    
   7079.22      70.9692      7.43771    
   7193.72      70.8973      7.25378    
   7310.07      70.8213      7.07410    
   7428.31      70.7407      6.89862    
   7548.45      70.6552      6.72730    
   7670.54      70.5646      6.56016    
   7794.61      70.4685      6.39686    
   7920.68      70.3662      6.23731    
   8048.79      70.2573      6.08181    
   8178.98      70.1411      5.93007    
   8311.26      70.0169      5.78176    
   8445.69      69.8834      5.63701    
   8582.29      69.7394      5.49584    
   8721.11      69.5833      5.35806    
   8862.16      69.4132      5.22357    
   9005.50      69.2262      5.09239    
   9151.16      69.0189      4.96399    
   9299.17      68.7863      4.83903    
   9449.58      68.5217      4.71695    
   9602.42      68.2149      4.59788    
   9757.73      67.8499      4.48159    
   9915.55      67.3984      4.36798    
   10075.9      66.8090      4.26243    
   10238.9      65.9610      4.15988    
   10404.5      64.3927      4.06024    
   10535.2      50.4485      3.98438    
   10535.4      50.4491      10.1214    
   10572.8      62.0723      10.0561    
   10743.8      65.4465      9.76527    
   10917.6      66.5624      9.48290    
   11094.2      67.1677      9.20870    
   11273.6      67.5007      8.94242    
   11455.9      67.6198      8.68385    
   11641.2      67.4915      8.43276    
   11829.5      66.8576      8.18892    
   11958.6      59.8386      8.02801    
   11958.8      59.8398      11.2380    
   12020.8      66.3192      11.1407    
   12215.3      67.8397      10.8442    
   12412.8      68.2098      10.5556    
   12526.6      65.3210      10.3949    
   12526.8      65.3216      11.8411    
   12613.6      68.6737      11.7233    
   12817.6      69.6977      11.4540    
   13025.0      70.3371      11.1890    
   13235.6      70.8356      10.9283    
   13449.7      71.2506      10.6719    
   13667.2      71.6073      10.4198    
   13888.3      71.9197      10.1722    
   14112.9      72.1967      9.92895    
   14341.2      72.4443      9.69017    
   14573.1      72.6673      9.45581    
   14808.9      72.8688      9.22590    
   15048.4      73.0516      9.00041    
   15291.8      73.2178      8.77935    
   15539.1      73.3692      8.56267    
   15790.4      73.5074      8.35037    
   16045.8      73.6335      8.14240    
   16305.4      73.7487      7.93875    
   16569.1      73.8539      7.73937    
   16837.1      73.9499      7.54422    
   17109.4      74.0374      7.35326    
   17386.1      74.1172      7.16645    
   17667.4      74.1899      6.98372    
   17953.1      74.2558      6.80505    
   18243.5      74.3156      6.63036    
   18538.6      74.3696      6.45962    
   18838.4      74.4183      6.29275    
   19143.1      74.4620      6.12971    
   19452.7      74.5011      5.97044    
   19767.4      74.5358      5.81487    
   20087.1      74.5665      5.66295    
   20412.0      74.5934      5.51461    
   20742.1      74.6168      5.36980    
   21077.6      74.6368      5.22844    
   21418.5      74.6538      5.09049    
   21765.0      74.6679      4.95587    
   22117.0      74.6793      4.82453    
   22474.7      74.6881      4.69641    
   22838.2      74.6946      4.57142    
   23207.6      74.6988      4.44953    
   23583.0      74.7010      4.33067    
   23964.4      74.7012      4.21477    
   24352.0      74.6996      4.10177    
   24745.9      74.6963      3.99161    
   25146.2      74.6915      3.88424    
   25552.9      74.6851      3.77959    
   25966.2      74.6773      3.67761    
   26386.1      74.6682      3.57823    
   26812.9      74.6580      3.48141    
   27246.6      74.6465      3.38707    
   27687.3      74.6341      3.29517    
   28135.1      74.6207      3.20565    
   28590.2      74.6065      3.11845    
   29052.6      74.5919      3.03353    
   29522.5      74.5843      2.95083    
   30000.0      74.5337      2.87030    
