 rn, Z=86, (Energy (eV),f1,f2)
   10.0000     -9999.00      2.83964    
   10.1617     -9999.00      3.21791    
   10.3261     -9999.00      3.64656    
   10.4931     -9999.00      4.05083    
   10.6628     -9999.00      4.42880    
   10.8353     -9999.00      4.83437    
   11.0106     -9999.00      5.24445    
   11.1886     -9999.00      5.68932    
   11.3696     -9999.00      6.15277    
   11.5535     -9999.00      6.62072    
   11.7404     -9999.00      7.12424    
   11.9303     -9999.00      7.66606    
   12.1232     -9999.00      8.11012    
   12.3193     -9999.00      8.55317    
   12.5186     -9999.00      9.02044    
   12.7210     -9999.00      9.51322    
   12.9268     -9999.00      9.95229    
   13.1359     -9999.00      10.2962    
   13.3483     -9999.00      10.6520    
   13.5642     -9999.00      11.0201    
   13.7836     -9999.00      11.2657    
   14.0066     -9999.00      11.5131    
   14.2331     -9999.00      11.7660    
   14.4633     -9999.00      12.0243    
   14.6973     -9999.00      12.1707    
   14.9350     -9999.00      12.3154    
   15.1765     -9999.00      12.4618    
   15.4220     -9999.00      12.5727    
   15.6714     -9999.00      12.6219    
   15.9249     -9999.00      12.6713    
   16.1825     -9999.00      12.7208    
   16.4442     -9999.00      12.6598    
   16.7102     -9999.00      12.5958    
   16.9805     -9999.00      12.5321    
   17.2551     -9999.00      12.3059    
   17.5342     -9999.00      12.0486    
   17.8178     -9999.00      11.7966    
   18.1060     -9999.00      11.6013    
   18.3989     -9999.00      11.4664    
   18.6964     -9999.00      11.3331    
   18.9988     -9999.00      11.2014    
   19.3061     -9999.00      11.0386    
   19.6184     -9999.00      10.7611    
   19.9357     -9999.00      10.4905    
   20.2582     -9999.00      10.2267    
   20.5858     -9999.00      9.96957    
   20.9188     -9999.00      9.76665    
   21.2571     -9999.00      9.56995    
   21.6009     -9999.00      9.37722    
   21.9503     -9999.00      9.18836    
   22.3053     -9999.00      9.00331    
   22.6661     -9999.00      8.82199    
   23.0327     -9999.00      8.64433    
   23.4053     -9999.00      8.45422    
   23.7838     -9999.00      8.26705    
   24.1685     -9999.00      8.08401    
   24.5594     -9999.00      7.90503    
   24.9566     -9999.00      7.62325    
   25.3603     -9999.00      7.30120    
   25.7705     -9999.00      6.99277    
   26.1873     -9999.00      6.69736    
   26.6109     -9999.00      6.45507    
   27.0413     -9999.00      6.26164    
   27.4786     -9999.00      6.07400    
   27.9231     -9999.00      5.89200    
   28.3747     -9999.00      5.71544    
   28.8337     -9999.00      5.52859    
   29.3000      8.71518      5.26907    
   29.7739      8.68786      5.02173    
   30.2555      8.64741      4.77351    
   30.7449      8.57159      4.52153    
   31.2421      8.47077      4.28284    
   31.7475      8.35198      4.05676    
   32.2609      8.21766      3.84298    
   32.7827      8.07020      3.64090    
   33.3130      7.90989      3.44945    
   33.8518      7.73436      3.26807    
   34.3993      7.54790      3.11098    
   34.9557      7.36247      2.96418    
   35.5211      7.17397      2.82430    
   36.0956      6.98331      2.69102    
   36.6794      6.79713      2.56030    
   37.2727      6.59211      2.40456    
   37.8755      6.36070      2.25829    
   38.4882      6.11128      2.12091    
   39.1107      5.84709      1.99031    
   39.7432      5.55914      1.85893    
   40.3861      5.24123      1.73624    
   41.0393      4.88127      1.64247    
   41.7031      4.52196      1.57759    
   42.3776      4.13369      1.52976    
   43.0630      3.75063      1.52376    
   43.7595      3.36519      1.51778    
   44.4673      2.95721      1.51865    
   45.1865      2.53922      1.53884    
   45.9174      2.10206      1.55930    
   46.6600      1.62296      1.58981    
   47.4147      1.12102      1.65273    
   48.1816     0.582067      1.72522    
   48.9609     0.204921E-02  1.81628    
   49.7528    -0.665324      1.93386    
   50.5576     -1.36470      2.15938    
   51.3753     -2.09833      2.41121    
   52.2062     -2.92688      2.69241    
   53.0506     -3.95070      3.18367    
   53.9087     -4.88860      3.95012    
   54.7806     -5.70961      4.92716    
   55.6667     -6.17281      5.92273    
   56.5670     -6.77305      6.81127    
   57.4820     -7.46413      7.85980    
   58.4117     -8.05313      9.18750    
   59.3564     -8.40836      10.7395    
   60.3165     -8.18939      12.2923    
   61.2921     -8.04823      13.3509    
   62.2834     -7.99704      14.5006    
   63.2908     -7.92450      15.7494    
   64.3145     -7.72538      17.1057    
   65.3547     -7.21237      18.5788    
   66.4118     -6.59142      19.5560    
   67.4859     -6.12019      20.5418    
   68.5775     -5.67451      21.5773    
   69.6867     -5.20633      22.6650    
   70.8138     -4.68647      23.8076    
   71.9591     -4.08977      25.0077    
   73.1230     -3.38598      26.2683    
   74.3057     -2.53645      27.5925    
   75.5076     -1.44969      28.9834    
   76.7289     0.152436      30.4445    
   77.9699      1.93962      30.9909    
   79.2310      3.38144      31.3986    
   80.5125      4.71369      31.8098    
   81.8147      5.99553      32.1798    
   83.1380      7.25237      32.5541    
   84.4827      8.51783      32.9328    
   85.8491      9.82230      33.3160    
   87.2377      11.1968      33.7035    
   88.6487      12.7123      34.0956    
   90.0825      14.6236      34.3390    
   91.5395      16.3676      34.0743    
   93.0201      17.9622      33.8116    
   94.5246      19.6635      33.5510    
   96.0535      21.3491      32.8091    
   97.6071      22.8005      32.0143    
   99.1858      24.2188      31.1591    
   100.790      25.4116      30.1406    
   102.420      26.3911      29.2328    
   104.077      27.5281      28.4480    
   105.760      28.8444      27.1952    
   107.471      29.7067      25.7244    
   109.209      30.2528      24.3331    
   110.975      30.6285      23.0171    
   112.770      30.8546      21.7722    
   114.594      30.9005      20.6611    
   116.448      30.9643      19.7104    
   118.331      31.0109      18.8036    
   120.245      31.0207      17.9384    
   122.190      30.9729      17.1130    
   124.166      30.8688      16.4124    
   126.175      30.8127      15.7877    
   128.215      30.7879      15.1868    
   130.289      30.7742      14.6088    
   132.397      30.7745      14.0528    
   134.538      30.8057      13.5179    
   136.714      30.9845      12.9318    
   138.925      31.0212      12.1505    
   141.172      30.9204      11.4164    
   143.456      30.7583      10.7267    
   145.776      30.5515      10.0787    
   148.134      30.3088      9.46978    
   150.530      30.0342      8.89766    
   152.964      29.7196      8.36010    
   155.439      29.3910      7.90731    
   157.953      29.0750      7.48689    
   160.507      28.7644      7.08882    
   163.103      28.4512      6.71190    
   165.742      28.1341      6.35504    
   168.422      27.8125      6.01714    
   171.146      27.4875      5.69722    
   173.915      27.1543      5.38870    
   176.727      26.8086      5.09680    
   179.586      26.4485      4.82845    
   182.491      26.0886      4.58333    
   185.442      25.7228      4.35065    
   188.442      25.3360      4.13024    
   191.489      24.9484      3.95315    
   194.587      24.5649      3.78365    
   197.734      24.1692      3.62142    
   200.932      23.7505      3.49189    
   204.182      23.3420      3.38833    
   207.485      22.9278      3.28784    
   210.840      22.4818      3.22228    
   214.251      22.0648      3.20049    
   217.716      21.6581      3.17885    
   221.237      21.2314      3.16623    
   224.816      20.8148      3.18242    
   228.452      20.4031      3.19869    
   232.147      19.9770      3.21504    
   235.902      19.5170      3.25895    
   239.717      19.0670      3.33416    
   243.595      18.6177      3.41110    
   247.535      18.1401      3.49227    
   251.538      17.6519      3.61572    
   255.607      17.1509      3.74352    
   259.741      16.6081      3.87585    
   263.942      15.9842      4.07493    
   268.211      15.3962      4.37886    
   272.549      14.8251      4.70546    
   276.957      14.2453      5.05641    
   281.437      13.6234      5.43354    
   285.989      12.9825      5.93628    
   290.615      12.3619      6.50085    
   295.315      11.6689      7.11910    
   300.092      11.0352      8.03985    
   304.945      10.7351      9.11153    
   309.878      10.5694      9.89810    
   314.890      10.3316      10.6700    
   319.983      10.0979      11.5021    
   325.158      9.95347      12.3693    
   330.418      9.82344      13.2271    
   335.762      9.74872      14.1445    
   341.192      9.76120      15.0322    
   346.711      9.76794      15.9005    
   352.319      9.80347      16.8191    
   358.017      9.96594      17.7552    
   363.808      10.1391      18.6401    
   369.692      10.3366      19.5690    
   375.672      10.6608      20.5442    
   381.748      11.0676      21.3535    
   387.922      11.4434      22.1321    
   394.197      11.8087      22.9392    
   400.573      12.2192      23.7756    
   407.052      12.7857      24.6426    
   413.635      13.4076      25.3037    
   420.326      13.9530      25.9136    
   427.124      14.4821      26.5382    
   434.032      15.0356      27.1779    
   441.052      15.6994      27.7914    
   448.186      16.3045      28.2550    
   455.435      16.8588      28.7264    
   462.802      17.3930      29.2056    
   470.287      17.9198      29.6928    
   477.894      18.4397      30.1882    
   485.623      18.9601      30.7083    
   493.478      19.5074      31.2529    
   501.459      20.0845      31.8072    
   509.570      20.6946      32.3713    
   517.812      21.3453      32.9454    
   526.187      22.0980      33.5298    
   534.698      22.8835      33.9949    
   543.346      23.6434      34.4402    
   552.134      24.4148      34.8914    
   561.065      25.2205      35.3484    
   570.139      26.0891      35.8115    
   579.361      27.1306      36.1768    
   588.732      28.0992      36.3534    
   598.254      28.9735      36.5309    
   607.930      29.8383      36.7092    
   617.763      30.7108      36.8885    
   627.755      31.6068      37.0686    
   637.908      32.6575      37.2411    
   648.226      33.7422      37.1532    
   658.711      34.6475      36.9291    
   669.365      35.4324      36.7094    
   680.191      36.1392      36.5368    
   691.193      36.8340      36.3991    
   702.372      37.5614      36.2594    
   713.733      38.2796      36.0378    
   725.277      38.9047      35.7610    
   737.008      39.4486      35.4866    
   748.928      39.9120      35.2142    
   761.042      40.2557      34.9528    
   773.351      40.4064      34.7905    
   785.859      40.4669      34.9683    
   798.570      40.8070      35.4327    
   811.486      41.3720      35.9030    
   824.611      42.1227      36.3798    
   837.949      43.1486      36.8632    
   851.502      44.4170      37.0292    
   865.274      45.7746      36.8375    
   879.269      46.8380      36.3299    
   893.491      47.7038      35.8290    
   907.943      48.4569      35.3350    
   922.628      49.1144      34.8479    
   937.551      49.7152      34.4123    
   952.715      50.2811      33.9935    
   968.124      50.8263      33.5895    
   983.783      51.3499      33.1906    
   999.695      51.8533      32.7929    
   1015.86      52.3407      32.3962    
   1032.29      52.7738      31.9739    
   1048.99      53.1575      31.5981    
   1065.96      53.5512      31.2717    
   1083.20      53.9523      30.9483    
   1100.72      54.3515      30.6278    
   1118.52      54.7466      30.3103    
   1136.61      55.1373      29.9954    
   1155.00      55.5243      29.6835    
   1173.68      55.9087      29.3745    
   1192.66      56.2926      29.0680    
   1211.95      56.6801      28.7642    
   1231.55      57.0837      28.4630    
   1251.47      57.5020      28.1279    
   1271.72      57.9221      27.7564    
   1292.29      58.2941      27.3406    
   1313.19      58.6273      26.9302    
   1334.43      58.9357      26.5257    
   1356.01      59.2247      26.1268    
   1377.94      59.4969      25.7329    
   1400.23      59.7546      25.3445    
   1422.88      60.0003      24.9618    
   1445.89      60.2364      24.5838    
   1469.28      60.4671      24.2071    
   1493.04      60.6945      23.8297    
   1517.19      60.9034      23.4310    
   1541.73      61.0886      23.0350    
   1566.67      61.2536      22.6453    
   1592.01      61.4029      22.2615    
   1617.76      61.5381      21.8836    
   1643.92      61.6600      21.5114    
   1670.51      61.7696      21.1451    
   1697.53      61.8676      20.7848    
   1724.99      61.9624      20.4300    
   1752.89      62.0446      20.0658    
   1781.24      62.1076      19.7028    
   1810.05      62.1524      19.3423    
   1839.32      62.1791      18.9878    
   1869.07      62.1901      18.6395    
   1899.30      62.1855      18.2971    
   1930.02      62.1655      17.9607    
   1961.24      62.1303      17.6301    
   1992.96      62.0763      17.3049    
   2025.20      62.0180      16.9943    
   2057.95      61.9445      16.6704    
   2091.24      61.8454      16.3499    
   2125.06      61.7244      16.0332    
   2159.43      61.5794      15.7197    
   2194.36      61.4099      15.4108    
   2229.85      61.2125      15.1045    
   2265.92      60.9850      14.8032    
   2302.57      60.7251      14.5052    
   2339.81      60.4274      14.2105    
   2377.66      60.0871      13.9203    
   2416.11      59.6984      13.6340    
   2455.19      59.2530      13.3511    
   2494.90      58.7400      13.0721    
   2535.26      58.1454      12.7969    
   2576.26      57.4497      12.5256    
   2617.93      56.6247      12.2581    
   2660.27      55.6285      11.9946    
   2703.30      54.3930      11.7345    
   2747.03      52.7969      11.4782    
   2791.46      50.5883      11.2258    
   2836.61      47.0662      10.9772    
   2882.49      37.3615      10.7322    
   2892.30      12.7018      10.6811    
   2892.50      12.7027      27.4800    
   2929.11      43.5982      26.9458    
   2976.48      46.0494      26.2794    
   3021.40      26.8888      25.6723    
   3021.60      26.9105      37.2030    
   3024.63      39.2073      37.1459    
   3073.55      51.4175      36.2406    
   3123.26      55.3706      35.3578    
   3173.78      57.9959      34.4985    
   3225.11      59.9471      33.6602    
   3277.27      61.4497      32.8441    
   3330.28      62.6008      32.0498    
   3384.15      63.4216      31.2751    
   3438.88      63.8418      30.5200    
   3494.50      63.6808      29.7836    
   3537.90      53.5558      29.2294    
   3538.10      53.5701      35.1080    
   3551.02      62.3809      34.8928    
   3608.46      66.4487      33.9612    
   3666.82      68.3655      33.0556    
   3726.13      69.7459      32.1739    
   3786.40      70.8369      31.3174    
   3847.64      71.7292      30.4854    
   3909.87      72.4640      29.6768    
   3973.11      73.0557      28.8899    
   4037.38      73.4946      28.1241    
   4102.68      74.6490      27.3793    
   4158.90      71.6893      26.7628    
   4159.10      71.6979      28.2788    
   4169.03      73.3843      28.1783    
   4236.46      74.6942      27.5123    
   4304.98      75.3390      26.8609    
   4374.62      75.7730      26.2245    
   4445.37      75.9174      25.6045    
   4481.90      74.0424      25.2940    
   4482.10      74.0437      26.4222    
   4517.27      76.3774      26.1301    
   4590.33      77.2118      25.5406    
   4664.58      77.7952      24.9627    
   4740.03      78.2832      24.3951    
   4816.69      78.7108      23.8381    
   4894.60      79.0940      23.2924    
   4973.77      79.4415      22.7568    
   5054.21      79.7580      22.2317    
   5135.96      80.0475      21.7170    
   5219.03      80.3132      21.2126    
   5303.44      80.5571      20.7180    
   5389.22      80.7810      20.2336    
   5476.39      80.9867      19.7593    
   5564.97      81.1757      19.2945    
   5654.98      81.3489      18.8395    
   5746.44      81.5076      18.3942    
   5839.39      81.6526      17.9580    
   5933.83      81.7848      17.5313    
   6029.81      81.9052      17.1138    
   6127.33      82.0142      16.7052    
   6226.44      82.1126      16.3056    
   6327.15      82.2011      15.9147    
   6429.48      82.2802      15.5325    
   6533.48      82.3505      15.1588    
   6639.15      82.4123      14.7932    
   6746.54      82.4661      14.4361    
   6855.65      82.5125      14.0869    
   6966.54      82.5518      13.7457    
   7079.22      82.5843      13.4122    
   7193.72      82.6103      13.0862    
   7310.07      82.6301      12.7678    
   7428.31      82.6442      12.4570    
   7548.45      82.6527      12.1531    
   7670.54      82.6559      11.8564    
   7794.61      82.6540      11.5667    
   7920.68      82.6474      11.2836    
   8048.79      82.6360      11.0073    
   8178.98      82.6202      10.7374    
   8311.26      82.6000      10.4739    
   8445.69      82.5757      10.2168    
   8582.29      82.5474      9.96574    
   8721.11      82.5152      9.72060    
   8862.16      82.4793      9.48135    
   9005.50      82.4397      9.24773    
   9151.16      82.3964      9.01989    
   9299.17      82.3498      8.79744    
   9449.58      82.2998      8.58041    
   9602.42      82.2470      8.36876    
   9757.73      82.1918      8.16199    
   9915.55      82.1369      7.96051    
   10075.9      82.0793      7.75074    
   10238.9      82.0088      7.54634    
   10404.5      81.9315      7.34721    
   10572.8      81.8475      7.15324    
   10743.8      81.7568      6.96434    
   10917.6      81.6595      6.78040    
   11094.2      81.5552      6.60133    
   11273.6      81.4435      6.42703    
   11455.9      81.3238      6.25739    
   11641.2      81.1953      6.09232    
   11829.5      81.0570      5.93172    
   12020.8      80.9078      5.77549    
   12215.3      80.7458      5.62353    
   12412.8      80.5690      5.47575    
   12613.6      80.3745      5.33206    
   12817.6      80.1583      5.19236    
   13025.0      79.9150      5.05655    
   13235.6      79.6366      4.92456    
   13449.7      79.3107      4.79628    
   13667.2      78.9168      4.67163    
   13888.3      78.4174      4.55052    
   14112.9      77.7312      4.43287    
   14341.2      76.6198      4.31859    
   14573.1      73.2783      4.20760    
   14619.3      61.6456      4.18607    
   14619.5      61.6463      10.1584    
   14808.9      76.0695      9.93452    
   15048.4      77.6219      9.66231    
   15291.8      78.4254      9.39757    
   15539.1      78.9296      9.14010    
   15790.4      79.2576      8.88967    
   16045.8      79.4561      8.64612    
   16305.4      79.5396      8.40923    
   16569.1      79.4977      8.17885    
   16837.1      79.2783      7.95478    
   17109.4      78.6814      7.73686    
   17337.0      71.4663      7.56187    
   17337.2      71.4670      10.6049    
   17386.1      77.3018      10.5605    
   17667.4      79.1262      10.3114    
   17953.1      79.3376      10.0681    
   18048.9      76.5977      9.98863    
   18049.1      76.5981      11.3352    
   18243.5      80.2027      11.1628    
   18538.6      81.0296      10.9095    
   18838.4      81.5899      10.6600    
   19143.1      82.0324      10.4144    
   19452.7      82.4020      10.1727    
   19767.4      82.7200      9.93500    
   20087.1      82.9984      9.70131    
   20412.0      83.2453      9.47165    
   20742.1      83.4661      9.24608    
   21077.6      83.6646      9.02457    
   21418.5      83.8440      8.80717    
   21765.0      84.0067      8.59385    
   22117.0      84.1545      8.38462    
   22474.7      84.2891      8.17946    
   22838.2      84.4117      7.97836    
   23207.6      84.5235      7.78130    
   23583.0      84.6255      7.58825    
   23964.4      84.7185      7.39919    
   24352.0      84.8033      7.21407    
   24745.9      84.8804      7.03288    
   25146.2      84.9505      6.85556    
   25552.9      85.0142      6.68208    
   25966.2      85.0718      6.51239    
   26386.1      85.1239      6.34644    
   26812.9      85.1707      6.18420    
   27246.6      85.2127      6.02560    
   27687.3      85.2502      5.87061    
   28135.1      85.2836      5.71915    
   28590.2      85.3129      5.57119    
   29052.6      85.3387      5.42667    
   29522.5      85.3609      5.28553    
   30000.0      85.3800      5.14772    
