 ru, Z=44, (Energy (eV),f1,f2)
   10.0000     -9999.00      1.22049    
   10.1617     -9999.00      1.25073    
   10.3261     -9999.00      1.28171    
   10.4931     -9999.00      1.31346    
   10.6628     -9999.00      1.34600    
   10.8353     -9999.00      1.37935    
   11.0106     -9999.00      1.42229    
   11.1886     -9999.00      1.47192    
   11.3696     -9999.00      1.52329    
   11.5535     -9999.00      1.59057    
   11.7404     -9999.00      1.68339    
   11.9303     -9999.00      1.78163    
   12.1232     -9999.00      1.88560    
   12.3193     -9999.00      1.99786    
   12.5186     -9999.00      2.12029    
   12.7210     -9999.00      2.25023    
   12.9268     -9999.00      2.38813    
   13.1359     -9999.00      2.53184    
   13.3483     -9999.00      2.65009    
   13.5642     -9999.00      2.77386    
   13.7836     -9999.00      2.90341    
   14.0066     -9999.00      3.03901    
   14.2331     -9999.00      3.18095    
   14.4633     -9999.00      3.32888    
   14.6973     -9999.00      3.48250    
   14.9350     -9999.00      3.64322    
   15.1765     -9999.00      3.81135    
   15.4220     -9999.00      3.98725    
   15.6714     -9999.00      4.15723    
   15.9249     -9999.00      4.31628    
   16.1825     -9999.00      4.48141    
   16.4442     -9999.00      4.65286    
   16.7102     -9999.00      4.83087    
   16.9805     -9999.00      5.01570    
   17.2551     -9999.00      5.19593    
   17.5342     -9999.00      5.35977    
   17.8178     -9999.00      5.52878    
   18.1060     -9999.00      5.70311    
   18.3989     -9999.00      5.88294    
   18.6964     -9999.00      6.06844    
   18.9988     -9999.00      6.21829    
   19.3061     -9999.00      6.34963    
   19.6184     -9999.00      6.48376    
   19.9357     -9999.00      6.62071    
   20.2582     -9999.00      6.76055    
   20.5858     -9999.00      6.90335    
   20.9188     -9999.00      7.04917    
   21.2571     -9999.00      7.16467    
   21.6009     -9999.00      7.24280    
   21.9503     -9999.00      7.32178    
   22.3053     -9999.00      7.40162    
   22.6661     -9999.00      7.48233    
   23.0327     -9999.00      7.56393    
   23.4053     -9999.00      7.64641    
   23.7838     -9999.00      7.70867    
   24.1685     -9999.00      7.75957    
   24.5594     -9999.00      7.81082    
   24.9566     -9999.00      7.86241    
   25.3603     -9999.00      7.91434    
   25.7705     -9999.00      7.96660    
   26.1873     -9999.00      7.89952    
   26.6109     -9999.00      7.79585    
   27.0413     -9999.00      7.69353    
   27.4786     -9999.00      7.59255    
   27.9231     -9999.00      7.48280    
   28.3747     -9999.00      7.33688    
   28.8337     -9999.00      7.19381    
   29.3000      8.45909      7.05352    
   29.7739      8.56641      6.91598    
   30.2555      8.66459      6.78110    
   30.7449      8.76478      6.64213    
   31.2421      8.84165      6.46924    
   31.7475      8.88697      6.30086    
   32.2609      8.90905      6.13686    
   32.7827      8.91115      5.97713    
   33.3130      8.89379      5.82156    
   33.8518      8.85649      5.67017    
   34.3993      8.79830      5.52303    
   34.9557      8.71404      5.37970    
   35.5211      8.59289      5.24993    
   36.0956      8.46054      5.14765    
   36.6794      8.30817      5.04736    
   37.2727      8.10895      4.96509    
   37.8755      7.89910      4.93040    
   38.4882      7.65162      4.89595    
   39.1107      7.36500      4.96882    
   39.7432      7.12198      5.07262    
   40.3861      6.87059      5.17860    
   41.0393      6.59610      5.36587    
   41.7031      6.35916      5.58786    
   42.3776      6.10741      5.82740    
   43.0630      5.87799      6.17225    
   43.7595      5.69663      6.53751    
   44.4673      5.54257      6.92439    
   45.1865      5.39286      7.35884    
   45.9174      5.29993      7.84911    
   46.6600      5.25617      8.37205    
   47.4147      5.26340      8.92984    
   48.1816      5.33373      9.52478    
   48.9609      5.48780      10.1368    
   49.7528      5.69892      10.7677    
   50.5576      6.00173      11.4379    
   51.3753      6.48784      12.1497    
   52.2062      7.16031      12.5909    
   53.0506      7.71625      12.9354    
   53.9087      8.24076      13.2893    
   54.7806      8.79587      13.6529    
   55.6667      9.41783      14.0265    
   56.5670      10.1989      14.3414    
   57.4820      10.9343      14.4423    
   58.4117      11.6218      14.5438    
   59.3564      12.3100      14.6461    
   60.3165      13.0421      14.7491    
   61.2921      13.8859      14.8529    
   62.2834      14.8262      14.7379    
   63.2908      15.7055      14.5475    
   64.3145      16.7294      14.3595    
   65.3547      17.7142      13.5803    
   66.4118      18.3622      12.7811    
   67.4859      18.8099      12.0288    
   68.5775      19.1495      11.3208    
   69.6867      19.4079      10.6545    
   70.8138      19.6038      10.0275    
   71.9591      19.7507      9.43726    
   73.1230      19.8597      8.88182    
   74.3057      19.9403      8.35907    
   75.5076      20.0035      7.86709    
   76.7289      20.0676      7.40407    
   77.9699      20.1902      6.89499    
   79.2310      20.1803      6.31685    
   80.5125      20.0944      5.78716    
   81.8147      19.9595      5.30191    
   83.1380      19.7785      4.87648    
   84.4827      19.6056      4.50819    
   85.8491      19.4337      4.16771    
   87.2377      19.2689      3.85294    
   88.6487      19.0943      3.52690    
   90.0825      18.8903      3.22273    
   91.5395      18.6669      2.94481    
   93.0201      18.4191      2.69085    
   94.5246      18.1386      2.50568    
   96.0535      17.9099      2.37549    
   97.6071      17.7070      2.25205    
   99.1858      17.5186      2.13504    
   100.790      17.3439      2.02409    
   102.420      17.1736      1.90057    
   104.077      16.9921      1.78053    
   105.760      16.7936      1.66807    
   107.471      16.5962      1.59027    
   109.209      16.4054      1.51673    
   110.975      16.2017      1.45329    
   112.770      16.0133      1.42802    
   114.594      15.8397      1.40318    
   116.448      15.6695      1.38020    
   118.331      15.5052      1.36672    
   120.245      15.3415      1.35338    
   122.190      15.1757      1.35434    
   124.166      15.0187      1.36263    
   126.175      14.8580      1.37479    
   128.215      14.7047      1.40417    
   130.289      14.5536      1.43416    
   132.397      14.3918      1.48576    
   134.538      14.2546      1.55966    
   136.714      14.1406      1.63723    
   138.925      14.0460      1.70690    
   141.172      13.9507      1.76768    
   143.456      13.8578      1.83062    
   145.776      13.7693      1.89581    
   148.134      13.6865      1.96332    
   150.530      13.6149      2.03323    
   152.964      13.5462      2.08993    
   155.439      13.4753      2.14772    
   157.953      13.4054      2.20712    
   160.507      13.3382      2.26816    
   163.103      13.2765      2.33088    
   165.742      13.2201      2.38544    
   168.422      13.1601      2.43686    
   171.146      13.0978      2.48939    
   173.915      13.0362      2.54305    
   176.727      12.9780      2.59787    
   179.586      12.9234      2.64606    
   182.491      12.8630      2.68957    
   185.442      12.7994      2.73381    
   188.442      12.7343      2.77877    
   191.489      12.6693      2.82447    
   194.587      12.6150      2.86470    
   197.734      12.5487      2.88972    
   200.932      12.4704      2.91495    
   204.182      12.3850      2.94040    
   207.485      12.2930      2.96608    
   210.840      12.1946      2.99197    
   214.251      12.0911      3.01810    
   217.716      11.9832      3.03957    
   221.237      11.8624      3.05616    
   224.816      11.7301      3.07283    
   228.452      11.5911      3.08960    
   232.147      11.4374      3.09264    
   235.902      11.2600      3.09303    
   239.717      11.0594      3.09342    
   243.595      10.8300      3.09381    
   247.535      10.5731      3.10694    
   251.538      10.2956      3.12577    
   255.607      9.99034      3.14472    
   259.741      9.64617      3.15794    
   263.942      9.24487      3.17006    
   268.211      8.75082      3.19797    
   272.549      8.17081      3.25799    
   276.957      7.47039      3.42250    
   281.437      6.62940      3.73181    
   285.989      5.89113      4.29274    
   290.615      5.19242      4.88214    
   295.315      4.41234      5.54384    
   300.092      3.51362      6.49129    
   304.945      2.85377      7.85531    
   309.878      2.55650      9.32033    
   314.890      2.44189      10.8268    
   319.983      2.78367      12.3634    
   325.158      3.18266      13.6579    
   330.418      3.91435      15.0880    
   335.762      4.78865      15.8893    
   341.192      5.59785      16.6479    
   346.711      6.35428      17.2611    
   352.319      7.15027      17.8034    
   358.017      7.83107      18.2077    
   363.808      8.47480      18.6212    
   369.692      9.08606      18.9616    
   375.672      9.65431      19.2990    
   381.748      10.1990      19.6424    
   387.922      10.7509      19.9901    
   394.197      11.2985      20.3106    
   400.573      11.8490      20.6363    
   407.052      12.4502      20.9322    
   413.635      13.0168      21.1658    
   420.326      13.5479      21.4020    
   427.124      14.0734      21.6409    
   434.032      14.6004      21.8824    
   441.052      15.1351      22.1266    
   448.186      15.7614      22.3736    
   455.435      16.3295      22.2322    
   462.802      16.6646      22.5567    
   470.287      17.0802      22.8860    
   477.894      17.6281      23.2201    
   485.623      18.2469      23.5208    
   493.478      18.8824      23.7808    
   501.459      19.5493      24.0427    
   509.570      20.2771      24.3082    
   517.812      21.1443      24.5382    
   526.187      22.1064      24.6309    
   534.698      23.0670      24.4652    
   543.346      23.8432      24.1736    
   552.134      24.5065      23.8852    
   561.065      25.0879      23.5843    
   570.139      25.5466      23.2968    
   579.361      25.9875      23.1319    
   588.732      26.4397      22.9992    
   598.254      26.9207      22.8875    
   607.930      27.4233      22.7776    
   617.763      27.9502      22.6677    
   627.755      28.5296      22.5518    
   637.908      29.1515      22.3590    
   648.226      29.7686      22.0543    
   658.711      30.2792      21.6799    
   669.365      30.7091      21.3122    
   680.191      31.0829      20.9923    
   691.193      31.4530      20.7087    
   702.372      31.8505      20.4349    
   713.733      32.2499      20.1247    
   725.277      32.6112      19.7921    
   737.008      32.9453      19.4659    
   748.928      33.2615      19.1448    
   761.042      33.5643      18.8283    
   773.351      33.8582      18.5136    
   785.859      34.1414      18.1924    
   798.570      34.4029      17.8673    
   811.486      34.6469      17.5479    
   824.611      34.8769      17.2342    
   837.949      35.0952      16.9261    
   851.502      35.3030      16.6226    
   865.274      35.5010      16.3234    
   879.269      35.6889      16.0286    
   893.491      35.8681      15.7393    
   907.943      36.0401      15.4550    
   922.628      36.2076      15.1759    
   937.551      36.3680      14.8950    
   952.715      36.5201      14.6177    
   968.124      36.6641      14.3441    
   983.783      36.8022      14.0756    
   999.695      36.9368      13.8101    
   1015.86      37.0715      13.5478    
   1032.29      37.1968      13.2730    
   1048.99      37.3102      13.0010    
   1065.96      37.4113      12.7317    
   1083.20      37.5026      12.4680    
   1100.72      37.5858      12.2097    
   1118.52      37.6618      11.9568    
   1136.61      37.7313      11.7091    
   1155.00      37.7948      11.4665    
   1173.68      37.8525      11.2289    
   1192.66      37.9050      10.9964    
   1211.95      37.9527      10.7687    
   1231.55      37.9955      10.5456    
   1251.47      38.0337      10.3273    
   1271.72      38.0678      10.1140    
   1292.29      38.0983      9.90555    
   1313.19      38.1256      9.70136    
   1334.43      38.1496      9.50137    
   1356.01      38.1706      9.30551    
   1377.94      38.1888      9.11350    
   1400.23      38.2044      8.92553    
   1422.88      38.2182      8.74160    
   1445.89      38.2311      8.56130    
   1469.28      38.2451      8.38230    
   1493.04      38.2608      8.20345    
   1517.19      38.2692      8.01344    
   1541.73      38.2673      7.82582    
   1566.67      38.2568      7.64264    
   1592.01      38.2404      7.46374    
   1617.76      38.2186      7.28900    
   1643.92      38.1918      7.11831    
   1670.51      38.1603      6.95145    
   1697.53      38.1241      6.78855    
   1724.99      38.0842      6.62960    
   1752.89      38.0398      6.47301    
   1781.24      37.9903      6.31966    
   1810.05      37.9357      6.16955    
   1839.32      37.8758      6.02288    
   1869.07      37.8107      5.87968    
   1899.30      37.7401      5.73989    
   1930.02      37.6641      5.60370    
   1961.24      37.5826      5.47064    
   1992.96      37.4944      5.34037    
   2025.20      37.4005      5.21492    
   2057.95      37.3000      5.09104    
   2091.24      37.1916      4.97019    
   2125.06      37.0749      4.85219    
   2159.43      36.9490      4.73716    
   2194.36      36.8130      4.62497    
   2229.85      36.6657      4.51564    
   2265.92      36.5056      4.40908    
   2302.57      36.3311      4.30521    
   2339.81      36.1398      4.20394    
   2377.66      35.9288      4.10534    
   2416.11      35.6945      4.00928    
   2455.19      35.4321      3.91570    
   2494.90      35.1350      3.82456    
   2535.26      34.7942      3.73581    
   2576.26      34.3965      3.64940    
   2617.93      33.9217      3.56527    
   2660.27      33.3367      3.48339    
   2703.30      32.5806      3.40370    
   2747.03      31.5202      3.32613    
   2791.46      29.7470      3.25063    
   2836.61      20.7864      3.17693    
   2837.80      14.4852      3.17502    
   2838.00      14.4865      10.9151    
   2882.49      29.2224      10.6711    
   2929.11      30.2058      10.4251    
   2966.80      24.1828      10.2331    
   2967.00      24.1914      14.0216    
   2976.48      29.7040      13.9577    
   3024.63      32.6557      13.6407    
   3073.55      33.9653      13.3313    
   3123.26      34.8110      13.0283    
   3173.78      35.2977      12.7320    
   3223.90      32.8590      12.4492    
   3224.10      32.8623      14.0287    
   3225.11      34.0876      14.0228    
   3277.27      36.6481      13.7202    
   3330.28      37.5256      13.4224    
   3384.15      38.2012      13.1273    
   3438.88      38.7678      12.8363    
   3494.50      39.2604      12.5491    
   3551.02      39.6970      12.2660    
   3608.46      40.0878      11.9863    
   3666.82      40.4408      11.7115    
   3726.13      40.7621      11.4409    
   3786.40      41.0553      11.1740    
   3847.64      41.3235      10.9119    
   3909.87      41.5701      10.6543    
   3973.11      41.7966      10.4006    
   4037.38      42.0051      10.1518    
   4102.68      42.1978      9.90781    
   4169.03      42.3757      9.66771    
   4236.46      42.5397      9.43240    
   4304.98      42.6914      9.20154    
   4374.62      42.8313      8.97513    
   4445.37      42.9606      8.75325    
   4517.27      43.0799      8.53579    
   4590.33      43.1900      8.32284    
   4664.58      43.2914      8.11409    
   4740.03      43.3848      7.90981    
   4816.69      43.4706      7.70982    
   4894.60      43.5494      7.51418    
   4973.77      43.6217      7.32266    
   5054.21      43.6877      7.13546    
   5135.96      43.7480      6.95224    
   5219.03      43.8028      6.77324    
   5303.44      43.8526      6.59823    
   5389.22      43.8976      6.42708    
   5476.39      43.9380      6.25994    
   5564.97      43.9743      6.09668    
   5654.98      44.0065      5.93714    
   5746.44      44.0350      5.78143    
   5839.39      44.0600      5.62929    
   5933.83      44.0818      5.48090    
   6029.81      44.1005      5.33596    
   6127.33      44.1162      5.19451    
   6226.44      44.1292      5.05640    
   6327.15      44.1395      4.92176    
   6429.48      44.1475      4.79046    
   6533.48      44.1533      4.66227    
   6639.15      44.1568      4.53731    
   6746.54      44.1583      4.41549    
   6855.65      44.1580      4.29678    
   6966.54      44.1561      4.18088    
   7079.22      44.1523      4.06791    
   7193.72      44.1469      3.95786    
   7310.07      44.1402      3.85070    
   7428.31      44.1322      3.74610    
   7548.45      44.1228      3.64436    
   7670.54      44.1123      3.54506    
   7794.61      44.1006      3.44848    
   7920.68      44.0879      3.35424    
   8048.79      44.0741      3.26252    
   8178.98      44.0595      3.17322    
   8311.26      44.0440      3.08630    
   8445.69      44.0278      3.00160    
   8582.29      44.0107      2.91902    
   8721.11      43.9929      2.83878    
   8862.16      43.9746      2.76060    
   9005.50      43.9556      2.68445    
   9151.16      43.9360      2.61040    
   9299.17      43.9159      2.53839    
   9449.58      43.8953      2.46820    
   9602.42      43.8743      2.39993    
   9757.73      43.8528      2.33339    
   9915.55      43.8309      2.26871    
   10075.9      43.8085      2.20577    
   10238.9      43.7858      2.14453    
   10404.5      43.7628      2.08495    
   10572.8      43.7394      2.02698    
   10743.8      43.7156      1.97059    
   10917.6      43.6916      1.91573    
   11094.2      43.6672      1.86236    
   11273.6      43.6425      1.81045    
   11455.9      43.6175      1.75995    
   11641.2      43.5922      1.71084    
   11829.5      43.5666      1.66307    
   12020.8      43.5407      1.61661    
   12215.3      43.5145      1.57143    
   12412.8      43.4879      1.52749    
   12613.6      43.4610      1.48476    
   12817.6      43.4337      1.44321    
   13025.0      43.4060      1.40280    
   13235.6      43.3778      1.36351    
   13449.7      43.3493      1.32531    
   13667.2      43.3202      1.28816    
   13888.3      43.2906      1.25205    
   14112.9      43.2604      1.21693    
   14341.2      43.2295      1.18278    
   14573.1      43.1980      1.14959    
   14808.9      43.1657      1.11732    
   15048.4      43.1325      1.08594    
   15291.8      43.0983      1.05543    
   15539.1      43.0630      1.02578    
   15790.4      43.0266     0.996951    
   16045.8      42.9887     0.968925    
   16305.4      42.9493     0.941679    
   16569.1      42.9082     0.915194    
   16837.1      42.8650     0.889447    
   17109.4      42.8195     0.864419    
   17386.1      42.7713     0.840089    
   17667.4      42.7199     0.816439    
   17953.1      42.6649     0.793449    
   18243.5      42.6055     0.771100    
   18538.6      42.5409     0.749377    
   18838.4      42.4699     0.728260    
   19143.1      42.3909     0.707734    
   19452.7      42.3020     0.687781    
   19767.4      42.2002     0.668385    
   20087.1      42.0810     0.649532    
   20412.0      41.9378     0.631205    
   20742.1      41.7589     0.613391    
   21077.6      41.5225     0.596074    
   21418.5      41.1789     0.579241    
   21765.0      40.5674     0.562878    
   22117.0      33.4540     0.546973    
   22117.1      32.7264     0.546968    
   22117.3      32.7266      3.59443    
   22474.7      40.7465      3.50692    
   22838.2      41.4752      3.42146    
   23207.6      41.9118      3.33752    
   23583.0      42.2253      3.25510    
   23964.4      42.4697      3.17421    
   24352.0      42.6692      3.09485    
   24745.9      42.8370      3.01702    
   25146.2      42.9809      2.94072    
   25552.9      43.1062      2.86595    
   25966.2      43.2165      2.79269    
   26386.1      43.3145      2.72094    
   26812.9      43.4020      2.65069    
   27246.6      43.4806      2.58193    
   27687.3      43.5514      2.51464    
   28135.1      43.6155      2.44881    
   28590.2      43.6737      2.38443    
   29052.6      43.7265      2.32148    
   29522.5      43.7746      2.25994    
   30000.0      43.8184      2.19980    
