 sb, Z=51, (Energy (eV),f1,f2)
   10.0000     -9999.00      9.95091    
   10.1617     -9999.00      10.0681    
   10.3261     -9999.00      9.92927    
   10.4931     -9999.00      9.42377    
   10.6628     -9999.00      8.92685    
   10.8353     -9999.00      8.35287    
   11.0106     -9999.00      7.84004    
   11.1886     -9999.00      7.46780    
   11.3696     -9999.00      7.10503    
   11.5535     -9999.00      6.73907    
   11.7404     -9999.00      6.40578    
   11.9303     -9999.00      6.13726    
   12.1232     -9999.00      5.87998    
   12.3193     -9999.00      5.66684    
   12.5186     -9999.00      5.46446    
   12.7210     -9999.00      5.25911    
   12.9268     -9999.00      5.02274    
   13.1359     -9999.00      4.80646    
   13.3483     -9999.00      4.66469    
   13.5642     -9999.00      4.51586    
   13.7836     -9999.00      4.35766    
   14.0066     -9999.00      4.20500    
   14.2331     -9999.00      4.06056    
   14.4633     -9999.00      3.93297    
   14.6973     -9999.00      3.80939    
   14.9350     -9999.00      3.62391    
   15.1765     -9999.00      3.43609    
   15.4220     -9999.00      3.23897    
   15.6714     -9999.00      3.06763    
   15.9249     -9999.00      2.91292    
   16.1825     -9999.00      2.76180    
   16.4442     -9999.00      2.61527    
   16.7102     -9999.00      2.47518    
   16.9805     -9999.00      2.33906    
   17.2551     -9999.00      2.21043    
   17.5342     -9999.00      2.09822    
   17.8178     -9999.00      1.99221    
   18.1060     -9999.00      1.88825    
   18.3989     -9999.00      1.78917    
   18.6964     -9999.00      1.69529    
   18.9988     -9999.00      1.61194    
   19.3061     -9999.00      1.53594    
   19.6184     -9999.00      1.47000    
   19.9357     -9999.00      1.39159    
   20.2582     -9999.00      1.31536    
   20.5858     -9999.00      1.24508    
   20.9188     -9999.00      1.19852    
   21.2571     -9999.00      1.15370    
   21.6009     -9999.00      1.11056    
   21.9503     -9999.00      1.06114    
   22.3053     -9999.00     0.992411    
   22.6661     -9999.00     0.932795    
   23.0327     -9999.00     0.901114    
   23.4053     -9999.00     0.870507    
   23.7838     -9999.00     0.826812    
   24.1685     -9999.00     0.771225    
   24.5594     -9999.00     0.746881    
   24.9566     -9999.00     0.722726    
   25.3603     -9999.00     0.680521    
   25.7705     -9999.00     0.651550    
   26.1873     -9999.00     0.632894    
   26.6109     -9999.00     0.614773    
   27.0413     -9999.00     0.592995    
   27.4786     -9999.00     0.570475    
   27.9231     -9999.00     0.550972    
   28.3747     -9999.00     0.536739    
   28.8337     -9999.00     0.536378    
   29.3000      3.11232     0.536018    
   29.7739      2.91467     0.539936    
   30.2555      2.69318     0.550310    
   30.7449      2.44794     0.568891    
   31.2421      2.15345     0.609553    
   31.7475      1.81575     0.681588    
   32.2609      1.35756     0.810752    
   32.7827     0.735966      1.00978    
   33.3130     0.770183      2.16656    
   33.8518      1.27244      2.62215    
   34.3993      1.55994      2.68626    
   34.9557      1.81873      2.64591    
   35.5211      1.78895      2.42602    
   36.0956      1.71294      2.32507    
   36.6794      1.58647      2.22857    
   37.2727      1.39552      2.14272    
   37.8755      1.14676      2.07332    
   38.4882     0.816139      2.05692    
   39.1107     0.446830      2.07505    
   39.7432     0.408244E-01  2.22673    
   40.3861    -0.354905      2.42288    
   41.0393    -0.721592      2.69851    
   41.7031     -1.05425      2.99500    
   42.3776     -1.39748      3.31311    
   43.0630     -1.73562      3.72083    
   43.7595     -2.00062      4.15517    
   44.4673     -2.26444      4.60258    
   45.1865     -2.50699      5.11024    
   45.9174     -2.66702      5.73693    
   46.6600     -2.63556      6.16547    
   47.4147     -2.76076      6.63601    
   48.1816     -2.85350      7.14244    
   48.9609     -2.87141      7.68753    
   49.7528     -2.84324      8.12142    
   50.5576     -2.87755      8.54249    
   51.3753     -2.94937      8.98539    
   52.2062     -3.08385      9.49949    
   53.0506     -3.14115      10.1154    
   53.9087     -3.10333      10.7713    
   54.7806     -2.99901      11.3445    
   55.6667     -2.92468      11.9112    
   56.5670     -2.84380      12.5062    
   57.4820     -2.73144      13.1234    
   58.4117     -2.60980      13.7389    
   59.3564     -2.48184      14.3834    
   60.3165     -2.35449      15.0838    
   61.2921     -2.14611      15.8667    
   62.2834     -1.81911      16.6902    
   63.2908     -1.37197      17.4104    
   64.3145    -0.944269      18.1038    
   65.3547    -0.491782      18.8248    
   66.4118     0.452285E-01  19.5746    
   67.4859     0.779790      20.2752    
   68.5775      1.45834      20.7754    
   69.6867      2.08365      21.2879    
   70.8138      2.71545      21.8130    
   71.9591      3.37550      22.3511    
   73.1230      4.09686      22.8834    
   74.3057      4.83237      23.3753    
   75.5076      5.59229      23.8735    
   76.7289      6.39113      24.3803    
   77.9699      7.24912      24.8978    
   79.2310      8.19351      25.4264    
   80.5125      9.29709      25.9435    
   81.8147      10.4496      26.2710    
   83.1380      11.6471      26.6026    
   84.4827      13.0396      26.8722    
   85.8491      14.5129      26.9077    
   87.2377      15.8818      26.7069    
   88.6487      17.2457      26.5036    
   90.0825      18.9441      26.1428    
   91.5395      20.1893      25.0337    
   93.0201      20.5647      24.3959    
   94.5246      21.6919      24.1491    
   96.0535      22.7399      23.4454    
   97.6071      23.6561      22.7621    
   99.1858      24.5290      22.0987    
   100.790      25.4136      21.4524    
   102.420      26.3790      20.8238    
   104.077      27.6863      20.1695    
   105.760      28.7748      18.6095    
   107.471      29.5455      17.0947    
   109.209      29.9169      15.5205    
   110.975      30.0612      14.0914    
   112.770      30.0748      12.7939    
   114.594      30.0350      11.6157    
   116.448      29.9706      10.4575    
   118.331      29.9619      9.30487    
   120.245      29.6502      7.92116    
   122.190      29.1148      6.74314    
   124.166      28.4629      5.74124    
   126.175      27.7589      4.89736    
   128.215      27.0307      4.18751    
   130.289      26.2933      3.58683    
   132.397      25.5291      3.07449    
   134.538      24.7569      2.71807    
   136.714      23.9711      2.49281    
   138.925      23.3300      2.40463    
   141.172      22.7896      2.31957    
   143.456      22.2892      2.23751    
   145.776      21.8044      2.15837    
   148.134      21.3099      2.10893    
   150.530      20.8024      2.11239    
   152.964      20.3549      2.19888    
   155.439      19.9568      2.31069    
   157.953      19.6117      2.44492    
   160.507      19.3104      2.58697    
   163.103      19.0445      2.73727    
   165.742      18.8131      2.89630    
   168.422      18.6214      3.06457    
   171.146      18.4930      3.21825    
   173.915      18.3824      3.34443    
   176.727      18.2720      3.43047    
   179.586      18.1583      3.51727    
   182.491      18.0451      3.60679    
   185.442      17.9410      3.70138    
   188.442      17.8489      3.79901    
   191.489      17.7783      3.89594    
   194.587      17.7132      3.97422    
   197.734      17.6525      4.04740    
   200.932      17.5900      4.11634    
   204.182      17.5298      4.18643    
   207.485      17.4746      4.25772    
   210.840      17.4298      4.33022    
   214.251      17.3887      4.38731    
   217.716      17.3469      4.44154    
   221.237      17.3015      4.49357    
   224.816      17.2554      4.54615    
   228.452      17.2094      4.59937    
   232.147      17.1640      4.65326    
   235.902      17.1194      4.70774    
   239.717      17.0759      4.76285    
   243.595      17.0334      4.81859    
   247.535      16.9921      4.87502    
   251.538      16.9523      4.93209    
   255.607      16.9140      4.98981    
   259.741      16.8776      5.04825    
   263.942      16.8438      5.10738    
   268.211      16.8137      5.16719    
   272.549      16.7906      5.22768    
   276.957      16.7838      5.27517    
   281.437      16.7691      5.30568    
   285.989      16.7421      5.32524    
   290.615      16.7050      5.34329    
   295.315      16.6592      5.36140    
   300.092      16.6067      5.37960    
   304.945      16.5480      5.39784    
   309.878      16.4829      5.41610    
   314.890      16.4114      5.43449    
   319.983      16.3333      5.45293    
   325.158      16.2483      5.47142    
   330.418      16.1560      5.48995    
   335.762      16.0558      5.50855    
   341.192      15.9474      5.52726    
   346.711      15.8300      5.54599    
   352.319      15.7030      5.56477    
   358.017      15.5655      5.58363    
   363.808      15.4168      5.60260    
   369.692      15.2561      5.62162    
   375.672      15.0826      5.64068    
   381.748      14.8962      5.65983    
   387.922      14.6983      5.67652    
   394.197      14.4904      5.68764    
   400.573      14.2592      5.67224    
   407.052      13.9832      5.64638    
   413.635      13.6652      5.62063    
   420.326      13.3040      5.59499    
   427.124      12.8949      5.56947    
   434.032      12.4314      5.54417    
   441.052      11.9043      5.51890    
   448.186      11.3037      5.49311    
   455.435      10.6104      5.46440    
   462.802      9.80154      5.43372    
   470.287      8.84525      5.40207    
   477.894      7.69600      5.37055    
   485.623      6.28402      5.33922    
   493.478      4.49258      5.30810    
   501.459      2.10701      5.27718    
   509.570     -1.33553      5.24644    
   517.812     -7.17167      5.21587    
   526.187     -24.6468      5.18548    
   528.100     -58.0467      5.17863    
   528.300     -57.9911      40.4663    
   534.698     -10.2272      39.7857    
   543.346     0.993204E-02  38.8962    
   552.134      5.68486      38.0259    
   561.065      9.65438      37.1750    
   570.139      12.6811      36.3487    
   579.361      15.1372      35.5788    
   588.732      17.2058      34.8346    
   598.254      18.9860      34.1121    
   607.930      20.5435      33.4051    
   617.763      21.9195      32.7122    
   627.755      23.1583      32.0313    
   637.908      24.2681      31.3408    
   648.226      25.2546      30.6303    
   658.711      26.1016      29.9134    
   669.365      26.7845      29.2143    
   680.191      27.3469      28.6102    
   691.193      27.8631      28.0800    
   702.372      28.3423      27.5863    
   713.733      28.7764      27.1086    
   725.277      29.1553      26.6443    
   737.008      29.4679      26.1881    
   748.928      29.6966      25.7396    
   761.042      29.7412      25.3105    
   773.351      29.6111      25.0125    
   785.859      29.3095      25.1554    
   798.570      29.2974      25.6701    
   811.486      29.6297      26.1947    
   824.611      30.1441      26.7304    
   837.949      31.0027      27.2772    
   851.502      32.0514      27.5181    
   865.274      33.2219      27.4078    
   879.269      34.1736      26.9858    
   893.491      34.8706      26.5715    
   907.943      35.4734      26.1640    
   922.628      35.9247      25.7630    
   937.551      36.3469      25.5229    
   952.715      36.7995      25.3245    
   968.124      37.2921      25.1620    
   983.783      37.8463      25.0006    
   999.695      38.4406      24.8111    
   1015.86      39.1722      24.5919    
   1032.29      39.8409      24.1034    
   1048.99      40.3666      23.6181    
   1065.96      40.8285      23.1379    
   1083.20      41.2421      22.6673    
   1100.72      41.6191      22.2063    
   1118.52      41.9653      21.7546    
   1136.61      42.2852      21.3122    
   1155.00      42.5820      20.8787    
   1173.68      42.8582      20.4541    
   1192.66      43.1157      20.0381    
   1211.95      43.3563      19.6306    
   1231.55      43.5811      19.2314    
   1251.47      43.7915      18.8408    
   1271.72      43.9888      18.4587    
   1292.29      44.1743      18.0848    
   1313.19      44.3492      17.7188    
   1334.43      44.5141      17.3600    
   1356.01      44.6693      17.0084    
   1377.94      44.8157      16.6640    
   1400.23      44.9542      16.3266    
   1422.88      45.0852      15.9959    
   1445.89      45.2103      15.6722    
   1469.28      45.3301      15.3534    
   1493.04      45.4472      15.0386    
   1517.19      45.5555      14.7210    
   1541.73      45.6518      14.4089    
   1566.67      45.7397      14.1035    
   1592.01      45.8203      13.8043    
   1617.76      45.8941      13.5115    
   1643.92      45.9621      13.2251    
   1670.51      46.0248      12.9447    
   1697.53      46.0829      12.6702    
   1724.99      46.1381      12.4016    
   1752.89      46.1889      12.1337    
   1781.24      46.2335      11.8698    
   1810.05      46.2712      11.6103    
   1839.32      46.3032      11.3568    
   1869.07      46.3304      11.1087    
   1899.30      46.3532      10.8659    
   1930.02      46.3716      10.6284    
   1961.24      46.3864      10.3962    
   1992.96      46.3960      10.1692    
   2025.20      46.4060      9.95145    
   2057.95      46.4146      9.73074    
   2091.24      46.4177      9.51375    
   2125.06      46.4161      9.30114    
   2159.43      46.4106      9.09249    
   2194.36      46.4018      8.88830    
   2229.85      46.3892      8.68723    
   2265.92      46.3730      8.49054    
   2302.57      46.3530      8.29714    
   2339.81      46.3297      8.10810    
   2377.66      46.3030      7.92205    
   2416.11      46.2724      7.73973    
   2455.19      46.2385      7.56087    
   2494.90      46.2005      7.38506    
   2535.26      46.1587      7.21297    
   2576.26      46.1131      7.04407    
   2617.93      46.0635      6.87843    
   2660.27      46.0098      6.71593    
   2703.30      45.9518      6.55647    
   2747.03      45.8892      6.40002    
   2791.46      45.8218      6.24657    
   2836.61      45.7495      6.09612    
   2882.49      45.6718      5.94841    
   2929.11      45.5882      5.80354    
   2976.48      45.4986      5.66146    
   3024.63      45.4021      5.52205    
   3073.55      45.2985      5.38534    
   3123.26      45.1867      5.25113    
   3173.78      45.0661      5.11949    
   3225.11      44.9355      4.99039    
   3277.27      44.7938      4.86368    
   3330.28      44.6395      4.73933    
   3384.15      44.4705      4.61737    
   3438.88      44.2846      4.49774    
   3494.50      44.0790      4.38040    
   3551.02      43.8496      4.26514    
   3608.46      43.5912      4.15211    
   3666.82      43.2971      4.04124    
   3726.13      42.9570      3.93245    
   3786.40      42.5562      3.82567    
   3847.64      42.0709      3.72091    
   3909.87      41.4596      3.61811    
   3973.11      40.6392      3.51726    
   4037.38      39.3939      3.41825    
   4102.68      36.7362      3.32140    
   4132.10      23.9024      3.27915    
   4132.30      23.9039      10.3431    
   4169.03      37.0855      10.2034    
   4236.46      39.1169      9.95490    
   4304.98      39.6096      9.71245    
   4374.62      37.5446      9.47607    
   4380.30      33.0068      9.45719    
   4380.50      33.0110      13.0236    
   4445.37      40.9183      12.7180    
   4517.27      42.1683      12.3926    
   4590.33      42.8546      12.0757    
   4664.58      43.0260      11.7667    
   4698.20      40.1599      11.6310    
   4698.40      40.1643      13.3768    
   4740.03      43.7255      13.2023    
   4816.69      44.8387      12.8907    
   4894.60      45.5823      12.5846    
   4973.77      46.1761      12.2838    
   5054.21      46.6772      11.9886    
   5135.96      47.1120      11.6989    
   5219.03      47.4956      11.4149    
   5303.44      47.8376      11.1361    
   5389.22      48.1446      10.8629    
   5476.39      48.4219      10.5952    
   5564.97      48.6734      10.3328    
   5654.98      48.9023      10.0759    
   5746.44      49.1111      9.82416    
   5839.39      49.3017      9.57780    
   5933.83      49.4761      9.33672    
   6029.81      49.6359      9.10089    
   6127.33      49.7823      8.87002    
   6226.44      49.9164      8.64429    
   6327.15      50.0394      8.42356    
   6429.48      50.1520      8.20770    
   6533.48      50.2551      7.99676    
   6639.15      50.3495      7.79056    
   6746.54      50.4356      7.58921    
   6855.65      50.5144      7.39245    
   6966.54      50.5860      7.20018    
   7079.22      50.6511      7.01252    
   7193.72      50.7102      6.82920    
   7310.07      50.7636      6.65031    
   7428.31      50.8118      6.47568    
   7548.45      50.8551      6.30508    
   7670.54      50.8936      6.13881    
   7794.61      50.9279      5.97654    
   7920.68      50.9583      5.81823    
   8048.79      50.9849      5.66370    
   8178.98      51.0079      5.51302    
   8311.26      51.0275      5.36603    
   8445.69      51.0442      5.22294    
   8582.29      51.0581      5.08311    
   8721.11      51.0690      4.94687    
   8862.16      51.0775      4.81417    
   9005.50      51.0836      4.68483    
   9151.16      51.0876      4.55874    
   9299.17      51.0894      4.43583    
   9449.58      51.0893      4.31615    
   9602.42      51.0875      4.19954    
   9757.73      51.0840      4.08576    
   9915.55      51.0788      3.97516    
   10075.9      51.0723      3.86730    
   10238.9      51.0643      3.76223    
   10404.5      51.0550      3.65991    
   10572.8      51.0445      3.56025    
   10743.8      51.0329      3.46320    
   10917.6      51.0202      3.36871    
   11094.2      51.0066      3.27669    
   11273.6      50.9920      3.18711    
   11455.9      50.9766      3.09989    
   11641.2      50.9604      3.01499    
   11829.5      50.9434      2.93234    
   12020.8      50.9258      2.85188    
   12215.3      50.9075      2.77357    
   12412.8      50.8886      2.69735    
   12613.6      50.8692      2.62317    
   12817.6      50.8492      2.55098    
   13025.0      50.8287      2.48072    
   13235.6      50.8078      2.41235    
   13449.7      50.7865      2.34582    
   13667.2      50.7647      2.28108    
   13888.3      50.7426      2.21810    
   14112.9      50.7201      2.15681    
   14341.2      50.6973      2.09718    
   14573.1      50.6741      2.03916    
   14808.9      50.6506      1.98272    
   15048.4      50.6268      1.92781    
   15291.8      50.6027      1.87439    
   15539.1      50.5783      1.82243    
   15790.4      50.5536      1.77188    
   16045.8      50.5287      1.72271    
   16305.4      50.5034      1.67487    
   16569.1      50.4778      1.62835    
   16837.1      50.4519      1.58309    
   17109.4      50.4257      1.53907    
   17386.1      50.3992      1.49625    
   17667.4      50.3723      1.45461    
   17953.1      50.3450      1.41410    
   18243.5      50.3173      1.37470    
   18538.6      50.2891      1.33639    
   18838.4      50.2605      1.29912    
   19143.1      50.2314      1.26287    
   19452.7      50.2017      1.22762    
   19767.4      50.1714      1.19334    
   20087.1      50.1404      1.15999    
   20412.0      50.1086      1.12756    
   20742.1      50.0760      1.09603    
   21077.6      50.0424      1.06535    
   21418.5      50.0078      1.03552    
   21765.0      49.9720      1.00651    
   22117.0      49.9348     0.978292    
   22474.7      49.8962     0.950852    
   22838.2      49.8558     0.924163    
   23207.6      49.8134     0.898208    
   23583.0      49.7688     0.872965    
   23964.4      49.7215     0.848415    
   24352.0      49.6712     0.824537    
   24745.9      49.6173     0.801315    
   25146.2      49.5592     0.778730    
   25552.9      49.4959     0.756764    
   25966.2      49.4263     0.735400    
   26386.1      49.3491     0.714620    
   26812.9      49.2621     0.694410    
   27246.6      49.1625     0.674753    
   27687.3      49.0460     0.655634    
   28135.1      48.9060     0.637037    
   28590.2      48.7313     0.618949    
   29052.6      48.5005     0.601355    
   29522.5      48.1654     0.584241    
   30000.0      47.5711     0.567594    
