 tb, Z=65, (Energy (eV),f1,f2)
   10.0000     -9999.00     0.159742    
   10.1617     -9999.00     0.166245    
   10.3261     -9999.00     0.173012    
   10.4931     -9999.00     0.180055    
   10.6628     -9999.00     0.187385    
   10.8353     -9999.00     0.195013    
   11.0106     -9999.00     0.202952    
   11.1886     -9999.00     0.211214    
   11.3696     -9999.00     0.219812    
   11.5535     -9999.00     0.228226    
   11.7404     -9999.00     0.236751    
   11.9303     -9999.00     0.245594    
   12.1232     -9999.00     0.254768    
   12.3193     -9999.00     0.264285    
   12.5186     -9999.00     0.273910    
   12.7210     -9999.00     0.283712    
   12.9268     -9999.00     0.293864    
   13.1359     -9999.00     0.304379    
   13.3483     -9999.00     0.315270    
   13.5642     -9999.00     0.326552    
   13.7836     -9999.00     0.337737    
   14.0066     -9999.00     0.348276    
   14.2331     -9999.00     0.359144    
   14.4633     -9999.00     0.370352    
   14.6973     -9999.00     0.381909    
   14.9350     -9999.00     0.393826    
   15.1765     -9999.00     0.405719    
   15.4220     -9999.00     0.417451    
   15.6714     -9999.00     0.429521    
   15.9249     -9999.00     0.441941    
   16.1825     -9999.00     0.454720    
   16.4442     -9999.00     0.467868    
   16.7102     -9999.00     0.481745    
   16.9805     -9999.00     0.496359    
   17.2551     -9999.00     0.511416    
   17.5342     -9999.00     0.526930    
   17.8178     -9999.00     0.542915    
   18.1060     -9999.00     0.559384    
   18.3989     -9999.00     0.576354    
   18.6964     -9999.00     0.593148    
   18.9988     -9999.00     0.608687    
   19.3061     -9999.00     0.624634    
   19.6184     -9999.00     0.640999    
   19.9357     -9999.00     0.657792    
   20.2582     -9999.00     0.675025    
   20.5858     -9999.00     0.692710    
   20.9188     -9999.00     0.724043    
   21.2571     -9999.00     0.776670    
   21.6009     -9999.00     0.833122    
   21.9503     -9999.00     0.893678    
   22.3053     -9999.00     0.979492    
   22.6661     -9999.00      1.10391    
   23.0327     -9999.00      1.24412    
   23.4053     -9999.00      1.40705    
   23.7838     -9999.00      1.59497    
   24.1685     -9999.00      1.81469    
   24.5594     -9999.00      2.08010    
   24.9566     -9999.00      2.39091    
   25.3603     -9999.00      2.75770    
   25.7705     -9999.00      3.19423    
   26.1873     -9999.00      3.69098    
   26.6109     -9999.00      4.10723    
   27.0413     -9999.00      4.57043    
   27.4786     -9999.00      5.24241    
   27.9231     -9999.00      6.01694    
   28.3747     -9999.00      6.60161    
   28.8337     -9999.00      7.20507    
   29.3000     0.651582      7.86585    
   29.7739     0.948041      8.62195    
   30.2555      1.55893      9.28488    
   30.7449      2.08510      9.66368    
   31.2421      2.56789      10.0579    
   31.7475      3.13073      10.4175    
   32.2609      3.68079      10.6738    
   32.7827      4.28397      10.9364    
   33.3130      4.92504      10.9587    
   33.8518      5.42173      10.9326    
   34.3993      5.84829      10.9065    
   34.9557      6.24186      10.8776    
   35.5211      6.60670      10.8443    
   36.0956      6.95255      10.8111    
   36.6794      7.29092      10.7780    
   37.2727      7.64482      10.7177    
   37.8755      7.95242      10.6153    
   38.4882      8.22692      10.5139    
   39.1107      8.48003      10.4123    
   39.7432      8.71062      10.3046    
   40.3861      8.91904      10.1981    
   41.0393      9.10497      10.0926    
   41.7031      9.26303      10.0016    
   42.3776      9.42216      9.92379    
   43.0630      9.57536      9.84662    
   43.7595      9.71641      9.77007    
   44.4673      9.83881      9.70466    
   45.1865      9.96488      9.65008    
   45.9174      10.0877      9.59580    
   46.6600      10.1980      9.54183    
   47.4147      10.2943      9.51503    
   48.1816      10.4103      9.50090    
   48.9609      10.5395      9.48681    
   49.7528      10.6853      9.47067    
   50.5576      10.8281      9.41852    
   51.3753      10.9560      9.36665    
   52.2062      11.0748      9.31505    
   53.0506      11.1879      9.26375    
   53.9087      11.2960      9.21273    
   54.7806      11.3997      9.16199    
   55.6667      11.4992      9.11154    
   56.5670      11.5953      9.06136    
   57.4820      11.6888      9.01146    
   58.4117      11.7830      8.95721    
   59.3564      11.8669      8.89748    
   60.3165      11.9431      8.83814    
   61.2921      12.0125      8.77920    
   62.2834      12.0753      8.72066    
   63.2908      12.1311      8.66251    
   64.3145      12.1794      8.60473    
   65.3547      12.2190      8.54736    
   66.4118      12.2466      8.49036    
   67.4859      12.2514      8.43388    
   68.5775      12.2487      8.42013    
   69.6867      12.2626      8.41337    
   70.8138      12.2822      8.40662    
   71.9591      12.3032      8.39986    
   73.1230      12.3237      8.39312    
   74.3057      12.3423      8.38639    
   75.5076      12.3564      8.37966    
   76.7289      12.3608      8.37945    
   77.9699      12.3696      8.38679    
   79.2310      12.3796      8.39413    
   80.5125      12.3871      8.40148    
   81.8147      12.3907      8.40884    
   83.1380      12.3865      8.41620    
   84.4827      12.3626      8.42425    
   85.8491      12.3414      8.47264    
   87.2377      12.3344      8.52130    
   88.6487      12.3329      8.57025    
   90.0825      12.3340      8.61947    
   91.5395      12.3359      8.66899    
   93.0201      12.3363      8.71878    
   94.5246      12.3285      8.76885    
   96.0535      12.3263      8.84827    
   97.6071      12.3402      8.92850    
   99.1858      12.3698      9.00947    
   100.790      12.4237      9.09117    
   102.420      12.5446      9.12287    
   104.077      12.6061      9.08698    
   105.760      12.6262      9.05122    
   107.471      12.6310      9.01560    
   109.209      12.6419      8.96983    
   110.975      12.6146      8.88177    
   112.770      12.5455      8.79458    
   114.594      12.4456      8.70825    
   116.448      12.3175      8.62277    
   118.331      12.1643      8.53812    
   120.245      11.9969      8.45430    
   122.190      11.8745      8.31163    
   124.166      11.5952      8.02328    
   126.175      11.1709      7.74493    
   128.215      10.6144      7.47623    
   130.289      9.92880      7.21686    
   132.397      9.08448      6.89601    
   134.538      7.97678      6.55137    
   136.714      6.46892      5.94455    
   138.925      4.06168      5.45334    
   141.172     0.388114      5.10897    
   143.456     -6.29039      5.19253    
   145.776     -16.6894      12.8836    
   148.134     -20.6146      33.5857    
   150.530     0.144398E-02  46.5790    
   152.964      14.1930      42.5670    
   155.439      21.5318      36.3238    
   157.953      23.6132      29.9094    
   160.507      22.7550      25.9582    
   163.103      22.0993      24.5422    
   165.742      22.1845      23.6741    
   168.422      22.3931      22.8367    
   171.146      22.6604      22.1813    
   173.915      22.9563      21.5515    
   176.727      23.2307      20.9397    
   179.586      23.4066      20.3905    
   182.491      23.6184      19.9507    
   185.442      23.8346      19.5204    
   188.442      24.0288      19.0993    
   191.489      24.1720      18.6873    
   194.587      24.2966      18.3677    
   197.734      24.4312      18.0626    
   200.932      24.5559      17.7625    
   204.182      24.6523      17.4953    
   207.485      24.7626      17.2606    
   210.840      24.8736      17.0290    
   214.251      24.9794      16.7996    
   217.716      25.0632      16.5628    
   221.237      25.1112      16.3294    
   224.816      25.0856      16.0993    
   228.452      25.0021      16.0346    
   232.147      25.0119      16.0485    
   235.902      25.1024      16.0624    
   239.717      25.2504      16.0764    
   243.595      25.4363      16.0110    
   247.535      25.5902      15.9135    
   251.538      25.7147      15.8167    
   255.607      25.8244      15.7245    
   259.741      25.9255      15.6375    
   263.942      26.0134      15.5510    
   268.211      26.0694      15.4649    
   272.549      26.0766      15.4347    
   276.957      26.1377      15.4750    
   281.437      26.2352      15.5154    
   285.989      26.3550      15.5559    
   290.615      26.4938      15.5965    
   295.315      26.6610      15.6373    
   300.092      26.8530      15.6447    
   304.945      27.0261      15.6246    
   309.878      27.1885      15.6046    
   314.890      27.3458      15.5846    
   319.983      27.4994      15.5647    
   325.158      27.6484      15.5447    
   330.418      27.7868      15.5248    
   335.762      27.9239      15.5305    
   341.192      28.0736      15.5421    
   346.711      28.2344      15.5537    
   352.319      28.4028      15.5653    
   358.017      28.5815      15.5769    
   363.808      28.7773      15.5787    
   369.692      28.9649      15.5610    
   375.672      29.1472      15.5434    
   381.748      29.3287      15.5257    
   387.922      29.5113      15.5081    
   394.197      29.6976      15.4906    
   400.573      29.8973      15.4682    
   407.052      30.0878      15.4231    
   413.635      30.2691      15.3782    
   420.326      30.4453      15.3334    
   427.124      30.6180      15.2887    
   434.032      30.7880      15.2442    
   441.052      30.9557      15.1998    
   448.186      31.1193      15.1555    
   455.435      31.2824      15.1168    
   462.802      31.4481      15.0791    
   470.287      31.6155      15.0415    
   477.894      31.7851      15.0040    
   485.623      31.9576      14.9665    
   493.478      32.1428      14.9292    
   501.459      32.3270      14.8701    
   509.570      32.5022      14.8090    
   517.812      32.6744      14.7482    
   526.187      32.8525      14.6876    
   534.698      33.0278      14.6120    
   543.346      33.1947      14.5346    
   552.134      33.3580      14.4576    
   561.065      33.5202      14.3810    
   570.139      33.6839      14.3048    
   579.361      33.8537      14.2291    
   588.732      34.0492      14.1537    
   598.254      34.2377      14.0114    
   607.930      34.3961      13.8611    
   617.763      34.5297      13.7124    
   627.755      34.6490      13.5653    
   637.908      34.7563      13.4198    
   648.226      34.8530      13.2759    
   658.711      34.9401      13.1335    
   669.365      35.0181      12.9926    
   680.191      35.0902      12.8525    
   691.193      35.1520      12.7099    
   702.372      35.2030      12.5689    
   713.733      35.2446      12.4295    
   725.277      35.2774      12.2916    
   737.008      35.3015      12.1552    
   748.928      35.3175      12.0203    
   761.042      35.3283      11.8870    
   773.351      35.3294      11.7447    
   785.859      35.3153      11.6011    
   798.570      35.2862      11.4593    
   811.486      35.2437      11.3191    
   824.611      35.1878      11.1808    
   837.949      35.1187      11.0440    
   851.502      35.0356      10.9070    
   865.274      34.9366      10.7695    
   879.269      34.8184      10.6317    
   893.491      34.6806      10.4957    
   907.943      34.5224      10.3613    
   922.628      34.3442      10.2287    
   937.551      34.1406      10.0912    
   952.715      33.9072      9.95386    
   968.124      33.6395      9.81685    
   983.783      33.3352      9.68203    
   999.695      32.9904      9.54793    
   1015.86      32.6002      9.41447    
   1032.29      32.1508      9.27440    
   1048.99      31.6311      9.13631    
   1065.96      31.0283      9.00026    
   1083.20      30.3249      8.86615    
   1100.72      29.4953      8.73396    
   1118.52      28.5020      8.60365    
   1136.61      27.2887      8.47560    
   1155.00      25.7630      8.34937    
   1173.68      23.7598      8.22492    
   1192.66      20.9402      8.10249    
   1211.95      16.4119      7.98186    
   1231.55      5.86091      7.86299    
   1241.00     -39.6154      7.80701    
   1241.20     -39.5880      39.5864    
   1251.47      7.88700      39.1186    
   1271.72      19.5288      38.2240    
   1292.29      25.2158      37.3498    
   1313.19      29.0414      36.4957    
   1334.43      31.9206      35.6610    
   1356.01      34.2140      34.8454    
   1377.94      36.1013      34.0484    
   1400.23      37.6850      33.2696    
   1422.88      39.0278      32.5088    
   1445.89      40.1696      31.7655    
   1469.28      41.1342      31.0390    
   1493.04      41.9325      30.3289    
   1517.19      42.5611      29.6352    
   1541.73      42.9931      28.9575    
   1566.67      43.1453      28.2955    
   1592.01      42.5693      27.6483    
   1611.20      35.9249      27.1746    
   1611.40      35.9465      31.7793    
   1617.76      41.7756      31.6085    
   1643.92      44.6986      30.9220    
   1670.51      46.0603      30.2504    
   1697.53      46.9951      29.5936    
   1724.99      47.6333      28.9514    
   1752.89      47.7067      28.3231    
   1767.60      45.3081      28.0012    
   1767.80      45.3277      30.0151    
   1781.24      48.5041      29.7007    
   1810.05      49.8811      29.0454    
   1839.32      50.7855      28.4047    
   1869.07      51.4981      27.7782    
   1899.30      52.0712      27.1660    
   1930.02      52.4890      26.5667    
   1961.24      52.4352      25.9806    
   1967.40      51.1135      25.8676    
   1967.60      51.1167      26.9456    
   1992.96      53.4307      26.5000    
   2025.20      54.1982      25.9522    
   2057.95      54.8065      25.4023    
   2091.24      55.3334      24.8609    
   2125.06      55.8051      24.3287    
   2159.43      56.2347      23.8055    
   2194.36      56.6289      23.2910    
   2229.85      56.9927      22.7855    
   2265.92      57.3293      22.2889    
   2302.57      57.6417      21.8012    
   2339.81      57.9317      21.3222    
   2377.66      58.2015      20.8519    
   2416.11      58.4518      20.3900    
   2455.19      58.6846      19.9375    
   2494.90      58.9013      19.4933    
   2535.26      59.1028      19.0576    
   2576.26      59.2895      18.6302    
   2617.93      59.4629      18.2116    
   2660.27      59.6237      17.8009    
   2703.30      59.7722      17.3984    
   2747.03      59.9099      17.0047    
   2791.46      60.0370      16.6181    
   2836.61      60.1535      16.2398    
   2882.49      60.2607      15.8694    
   2929.11      60.3589      15.5064    
   2976.48      60.4487      15.1511    
   3024.63      60.5297      14.8027    
   3073.55      60.6033      14.4626    
   3123.26      60.6698      14.1289    
   3173.78      60.7289      13.8021    
   3225.11      60.7808      13.4830    
   3277.27      60.8272      13.1711    
   3330.28      60.8672      12.8647    
   3384.15      60.9011      12.5658    
   3438.88      60.9299      12.2733    
   3494.50      60.9532      11.9870    
   3551.02      60.9713      11.7071    
   3608.46      60.9846      11.4332    
   3666.82      60.9930      11.1654    
   3726.13      60.9970      10.9036    
   3786.40      60.9966      10.6476    
   3847.64      60.9919      10.3973    
   3909.87      60.9831      10.1525    
   3973.11      60.9704      9.91329    
   4037.38      60.9537      9.67927    
   4102.68      60.9333      9.45067    
   4169.03      60.9091      9.22709    
   4236.46      60.8812      9.00870    
   4304.98      60.8498      8.79506    
   4374.62      60.8147      8.58635    
   4445.37      60.7761      8.38237    
   4517.27      60.7339      8.18299    
   4590.33      60.6882      7.98821    
   4664.58      60.6389      7.79767    
   4740.03      60.5858      7.61156    
   4816.69      60.5289      7.42979    
   4894.60      60.4682      7.25208    
   4973.77      60.4036      7.07853    
   5054.21      60.3348      6.90880    
   5135.96      60.2616      6.74299    
   5219.03      60.1838      6.58095    
   5303.44      60.1011      6.42274    
   5389.22      60.0133      6.26796    
   5476.39      59.9198      6.11675    
   5564.97      59.8201      5.96912    
   5654.98      59.7139      5.82484    
   5746.44      59.6004      5.68387    
   5839.39      59.4787      5.54609    
   5933.83      59.3477      5.41143    
   6029.81      59.2065      5.28005    
   6127.33      59.0536      5.15149    
   6226.44      58.8868      5.02586    
   6327.15      58.7040      4.90319    
   6429.48      58.5021      4.78328    
   6533.48      58.2771      4.66619    
   6639.15      58.0235      4.55177    
   6746.54      57.7334      4.43979    
   6855.65      57.3954      4.33054    
   6966.54      56.9917      4.22382    
   7079.22      56.4915      4.11929    
   7193.72      55.8351      4.01741    
   7310.07      54.8793      3.91758    
   7428.31      53.0769      3.82042    
   7513.90      39.2329      3.75252    
   7514.10      39.2334      10.2014    
   7548.45      51.2377      10.1318    
   7670.54      54.2723      9.89089    
   7794.61      55.2962      9.65587    
   7920.68      55.7667      9.42627    
   8048.79      55.8349      9.20232    
   8178.98      55.1954      8.98365    
   8251.50      48.1279      8.86556    
   8251.70      48.1303      12.4114    
   8311.26      55.4242      12.2418    
   8445.69      57.0018      11.8720    
   8582.29      57.5979      11.5134    
   8707.90      54.7474      11.1982    
   8708.10      54.7481      12.7208    
   8721.11      57.1654      12.6934    
   8862.16      58.8928      12.4030    
   9005.50      59.6695      12.1180    
   9151.16      60.2602      11.8371    
   9299.17      60.7491      11.5607    
   9449.58      61.1689      11.2890    
   9602.42      61.5370      11.0219    
   9757.73      61.8636      10.7592    
   9915.55      62.1560      10.5019    
   10075.9      62.4202      10.2486    
   10238.9      62.6589      10.0001    
   10404.5      62.8760      9.75621    
   10572.8      63.0738      9.51700    
   10743.8      63.2544      9.28247    
   10917.6      63.4195      9.05258    
   11094.2      63.5707      8.82732    
   11273.6      63.7091      8.60665    
   11455.9      63.8360      8.39055    
   11641.2      63.9521      8.17898    
   11829.5      64.0584      7.97189    
   12020.8      64.1557      7.76925    
   12215.3      64.2447      7.57100    
   12412.8      64.3259      7.37710    
   12613.6      64.3999      7.18749    
   12817.6      64.4672      7.00213    
   13025.0      64.5283      6.82094    
   13235.6      64.5835      6.64387    
   13449.7      64.6334      6.47088    
   13667.2      64.6782      6.30188    
   13888.3      64.7184      6.13682    
   14112.9      64.7540      5.97564    
   14341.2      64.7856      5.81828    
   14573.1      64.8133      5.66465    
   14808.9      64.8374      5.51472    
   15048.4      64.8581      5.36839    
   15291.8      64.8756      5.22562    
   15539.1      64.8902      5.08634    
   15790.4      64.9020      4.95047    
   16045.8      64.9111      4.81795    
   16305.4      64.9179      4.68872    
   16569.1      64.9223      4.56272    
   16837.1      64.9246      4.43986    
   17109.4      64.9249      4.32011    
   17386.1      64.9233      4.20337    
   17667.4      64.9200      4.08960    
   17953.1      64.9150      3.97873    
   18243.5      64.9085      3.87070    
   18538.6      64.9005      3.76544    
   18838.4      64.8912      3.66289    
   19143.1      64.8807      3.56301    
   19452.7      64.8689      3.46571    
   19767.4      64.8561      3.37095    
   20087.1      64.8422      3.27867    
   20412.0      64.8274      3.18880    
   20742.1      64.8117      3.10130    
   21077.6      64.7952      3.01611    
   21418.5      64.7778      2.93317    
   21765.0      64.7598      2.85243    
   22117.0      64.7410      2.77384    
   22474.7      64.7217      2.69734    
   22838.2      64.7017      2.62289    
   23207.6      64.6812      2.55043    
   23583.0      64.6601      2.47992    
   23964.4      64.6385      2.41131    
   24352.0      64.6165      2.34454    
   24745.9      64.5940      2.27958    
   25146.2      64.5712      2.21638    
   25552.9      64.5479      2.15489    
   25966.2      64.5242      2.09508    
   26386.1      64.5002      2.03689    
   26812.9      64.4758      1.98029    
   27246.6      64.4510      1.92524    
   27687.3      64.4260      1.87169    
   28135.1      64.4005      1.81961    
   28590.2      64.3748      1.76896    
   29052.6      64.3486      1.71970    
   29522.5      64.3222      1.67180    
   30000.0      64.2953      1.62522    
