 tc, Z=43, (Energy (eV),f1,f2)
   10.0000     -9999.00      1.16890    
   10.1617     -9999.00      1.22630    
   10.3261     -9999.00      1.28651    
   10.4931     -9999.00      1.34968    
   10.6628     -9999.00      1.41595    
   10.8353     -9999.00      1.48547    
   11.0106     -9999.00      1.55841    
   11.1886     -9999.00      1.63493    
   11.3696     -9999.00      1.71520    
   11.5535     -9999.00      1.79060    
   11.7404     -9999.00      1.85821    
   11.9303     -9999.00      1.92837    
   12.1232     -9999.00      2.00119    
   12.3193     -9999.00      2.07675    
   12.5186     -9999.00      2.15643    
   12.7210     -9999.00      2.24083    
   12.9268     -9999.00      2.32854    
   13.1359     -9999.00      2.41967    
   13.3483     -9999.00      2.51072    
   13.5642     -9999.00      2.59715    
   13.7836     -9999.00      2.68656    
   14.0066     -9999.00      2.77904    
   14.2331     -9999.00      2.87471    
   14.4633     -9999.00      2.97073    
   14.6973     -9999.00      3.06680    
   14.9350     -9999.00      3.16598    
   15.1765     -9999.00      3.26836    
   15.4220     -9999.00      3.37406    
   15.6714     -9999.00      3.46886    
   15.9249     -9999.00      3.54805    
   16.1825     -9999.00      3.62904    
   16.4442     -9999.00      3.71188    
   16.7102     -9999.00      3.79661    
   16.9805     -9999.00      3.88292    
   17.2551     -9999.00      3.96908    
   17.5342     -9999.00      4.05715    
   17.8178     -9999.00      4.14718    
   18.1060     -9999.00      4.23920    
   18.3989     -9999.00      4.33326    
   18.6964     -9999.00      4.42942    
   18.9988     -9999.00      4.52770    
   19.3061     -9999.00      4.58174    
   19.6184     -9999.00      4.63623    
   19.9357     -9999.00      4.69149    
   20.2582     -9999.00      4.74862    
   20.5858     -9999.00      4.80646    
   20.9188     -9999.00      4.86499    
   21.2571     -9999.00      4.92424    
   21.6009     -9999.00      4.98421    
   21.9503     -9999.00      5.04491    
   22.3053     -9999.00      5.10635    
   22.6661     -9999.00      5.16504    
   23.0327     -9999.00      5.19243    
   23.4053     -9999.00      5.21996    
   23.7838     -9999.00      5.24765    
   24.1685     -9999.00      5.27548    
   24.5594     -9999.00      5.30345    
   24.9566     -9999.00      5.30974    
   25.3603     -9999.00      5.29950    
   25.7705     -9999.00      5.28929    
   26.1873     -9999.00      5.27909    
   26.6109     -9999.00      5.26892    
   27.0413     -9999.00      5.25876    
   27.4786     -9999.00      5.22652    
   27.9231     -9999.00      5.16540    
   28.3747     -9999.00      5.10500    
   28.8337     -9999.00      5.04531    
   29.3000      7.37166      4.98631    
   29.7739      7.43509      4.92525    
   30.2555      7.48267      4.81345    
   30.7449      7.49547      4.70419    
   31.2421      7.48578      4.59741    
   31.7475      7.46206      4.48968    
   32.2609      7.41243      4.36859    
   32.7827      7.33520      4.25077    
   33.3130      7.23723      4.12859    
   33.8518      7.08784      3.99000    
   34.3993      6.87034      3.86322    
   34.9557      6.61076      3.78904    
   35.5211      6.29120      3.73288    
   36.0956      5.94067      3.75422    
   36.6794      5.51899      3.83128    
   37.2727      5.09533      3.97773    
   37.8755      4.58341      4.26742    
   38.4882      4.18756      4.68469    
   39.1107      3.85000      5.14275    
   39.7432      3.52904      5.64560    
   40.3861      3.18421      6.22739    
   41.0393      2.92130      6.99385    
   41.7031      2.78250      7.85463    
   42.3776      2.81406      8.82136    
   43.0630      3.15931      9.80863    
   43.7595      3.57313      10.5860    
   44.4673      4.11858      11.3361    
   45.1865      4.67136      12.0004    
   45.9174      5.35619      12.7037    
   46.6600      6.10311      13.1431    
   47.4147      6.84115      13.5966    
   48.1816      7.72059      13.9698    
   48.9609      8.53817      14.1836    
   49.7528      9.36473      14.4007    
   50.5576      10.3179      14.6211    
   51.3753      11.3579      14.4911    
   52.2062      12.1996      14.2552    
   53.0506      12.9725      14.0231    
   53.9087      13.7587      13.7948    
   54.7806      14.7200      13.4012    
   55.6667      15.3820      12.6585    
   56.5670      15.7699      11.9812    
   57.4820      16.0790      11.4817    
   58.4117      16.3730      11.0031    
   59.3564      16.6473      10.5443    
   60.3165      16.8862      10.0809    
   61.2921      17.0869      9.63785    
   62.2834      17.2599      9.21431    
   63.2908      17.4121      8.80939    
   64.3145      17.5505      8.42224    
   65.3547      17.6871      8.05212    
   66.4118      17.8566      7.65887    
   67.4859      17.9548      7.21569    
   68.5775      18.0080      6.79817    
   69.6867      18.0407      6.40480    
   70.8138      18.0880      5.99628    
   71.9591      18.0544      5.56111    
   73.1230      17.9623      5.15754    
   74.3057      17.8236      4.82222    
   75.5076      17.7002      4.53199    
   76.7289      17.5808      4.25922    
   77.9699      17.4518      4.00287    
   79.2310      17.2983      3.78562    
   80.5125      17.1776      3.60675    
   81.8147      17.0829      3.43634    
   83.1380      17.0235      3.26444    
   84.4827      16.9418      3.02963    
   85.8491      16.8264      2.81171    
   87.2377      16.6882      2.61612    
   88.6487      16.5482      2.43998    
   90.0825      16.4067      2.27569    
   91.5395      16.2646      2.12247    
   93.0201      16.1165      1.96821    
   94.5246      15.9571      1.82456    
   96.0535      15.7841      1.69140    
   97.6071      15.6045      1.58592    
   99.1858      15.4315      1.49249    
   100.790      15.2549      1.40456    
   102.420      15.0546      1.33154    
   104.077      14.8707      1.30103    
   105.760      14.6982      1.27522    
   107.471      14.5376      1.26046    
   109.209      14.3801      1.24587    
   110.975      14.2249      1.24819    
   112.770      14.0799      1.25535    
   114.594      13.9359      1.27065    
   116.448      13.8044      1.29476    
   118.331      13.6800      1.31933    
   120.245      13.5563      1.34512    
   122.190      13.4387      1.38077    
   124.166      13.3280      1.41738    
   126.175      13.2213      1.45495    
   128.215      13.1149      1.49352    
   130.289      13.0121      1.54153    
   132.397      12.9165      1.59194    
   134.538      12.8263      1.64400    
   136.714      12.7415      1.69776    
   138.925      12.6648      1.75328    
   141.172      12.5929      1.79879    
   143.456      12.5184      1.84304    
   145.776      12.4431      1.88838    
   148.134      12.3683      1.93426    
   150.530      12.2939      1.98095    
   152.964      12.2204      2.02877    
   155.439      12.1481      2.07774    
   157.953      12.0781      2.12790    
   160.507      12.0151      2.17926    
   163.103      11.9537      2.21750    
   165.742      11.8853      2.25297    
   168.422      11.8136      2.28901    
   171.146      11.7411      2.32562    
   173.915      11.6743      2.35799    
   176.727      11.5967      2.37664    
   179.586      11.5091      2.39544    
   182.491      11.4135      2.41439    
   185.442      11.3103      2.43358    
   188.442      11.1999      2.45303    
   191.489      11.0817      2.47264    
   194.587      10.9557      2.49239    
   197.734      10.8223      2.51232    
   200.932      10.6781      2.52681    
   204.182      10.5201      2.54117    
   207.485      10.3473      2.55562    
   210.840      10.1584      2.57015    
   214.251      9.95073      2.58566    
   217.716      9.72317      2.60238    
   221.237      9.47149      2.61921    
   224.816      9.18736      2.63637    
   228.452      8.86388      2.66524    
   232.147      8.50599      2.70937    
   235.902      8.06419      2.76557    
   239.717      7.60929      2.91946    
   243.595      7.14670      3.08193    
   247.535      6.61980      3.25343    
   251.538      6.05436      3.53883    
   255.607      5.47050      3.83335    
   259.741      4.70238      4.19080    
   263.942      3.87048      4.73985    
   268.211      3.08638      5.62785    
   272.549      2.42175      6.68223    
   276.957      1.92526      7.92684    
   281.437      1.74073      9.37968    
   285.989      1.78665      10.6247    
   290.615      2.10913      11.9587    
   295.315      2.46263      12.9300    
   300.092      2.86646      13.9802    
   304.945      3.37108      14.9000    
   309.878      3.87091      15.7829    
   314.890      4.54441      16.6537    
   319.983      5.19136      17.3545    
   325.158      5.95551      18.0167    
   330.418      6.63523      18.4930    
   335.762      7.24587      18.9772    
   341.192      7.84397      19.4489    
   346.711      8.44774      19.9324    
   352.319      9.09472      20.4280    
   358.017      9.90055      20.8365    
   363.808      10.6174      21.0751    
   369.692      11.2407      21.3163    
   375.672      11.8406      21.5604    
   381.748      12.4293      21.8145    
   387.922      13.0240      22.0754    
   394.197      13.6347      22.3394    
   400.573      14.2715      22.6065    
   407.052      15.0272      22.8768    
   413.635      15.7847      22.9370    
   420.326      16.4398      22.9562    
   427.124      17.0414      22.9755    
   434.032      17.5885      22.9948    
   441.052      18.0684      23.0874    
   448.186      18.6886      23.3023    
   455.435      19.5037      23.3851    
   462.802      20.1795      23.2504    
   470.287      20.7707      23.1337    
   477.894      21.3262      23.0176    
   485.623      21.8514      22.9022    
   493.478      22.3522      22.7873    
   501.459      22.8295      22.6726    
   509.570      23.2798      22.5590    
   517.812      23.6778      22.4631    
   526.187      24.0509      22.4272    
   534.698      24.4514      22.5047    
   543.346      24.9815      22.6391    
   552.134      25.6947      22.7740    
   561.065      26.5180      22.6037    
   570.139      27.2204      22.2880    
   579.361      27.7809      21.9535    
   588.732      28.2829      21.6284    
   598.254      28.7466      21.3108    
   607.930      29.1808      20.9975    
   617.763      29.5917      20.6889    
   627.755      29.9881      20.3837    
   637.908      30.3714      20.0701    
   648.226      30.7344      19.7407    
   658.711      31.0588      19.4033    
   669.365      31.3427      19.0713    
   680.191      31.5923      18.7840    
   691.193      31.8512      18.5308    
   702.372      32.1444      18.2862    
   713.733      32.4463      18.0080    
   725.277      32.7185      17.7091    
   737.008      32.9702      17.4161    
   748.928      33.2089      17.1277    
   761.042      33.4378      16.8439    
   773.351      33.6602      16.5626    
   785.859      33.8749      16.2787    
   798.570      34.0751      15.9937    
   811.486      34.2637      15.7137    
   824.611      34.4433      15.4387    
   837.949      34.6160      15.1684    
   851.502      34.7824      14.9002    
   865.274      34.9422      14.6336    
   879.269      35.0929      14.3691    
   893.491      35.2364      14.1094    
   907.943      35.3747      13.8543    
   922.628      35.5128      13.6038    
   937.551      35.6445      13.3446    
   952.715      35.7670      13.0870    
   968.124      35.8789      12.8314    
   983.783      35.9830      12.5809    
   999.695      36.0816      12.3345    
   1015.86      36.1768      12.0919    
   1032.29      36.2652      11.8464    
   1048.99      36.3460      11.6034    
   1065.96      36.4173      11.3628    
   1083.20      36.4809      11.1272    
   1100.72      36.5380      10.8965    
   1118.52      36.5893      10.6705    
   1136.61      36.6350      10.4491    
   1155.00      36.6756      10.2323    
   1173.68      36.7115      10.0201    
   1192.66      36.7429      9.81229    
   1211.95      36.7699      9.60876    
   1231.55      36.7927      9.40949    
   1251.47      36.8116      9.21458    
   1271.72      36.8267      9.02398    
   1292.29      36.8386      8.83764    
   1313.19      36.8472      8.65498    
   1334.43      36.8526      8.47613    
   1356.01      36.8549      8.30103    
   1377.94      36.8542      8.12948    
   1400.23      36.8505      7.96152    
   1422.88      36.8444      7.79715    
   1445.89      36.8361      7.63613    
   1469.28      36.8264      7.47744    
   1493.04      36.8155      7.32056    
   1517.19      36.7998      7.16085    
   1541.73      36.7780      7.00379    
   1566.67      36.7505      6.85016    
   1592.01      36.7187      6.70009    
   1617.76      36.6827      6.55328    
   1643.92      36.6427      6.40959    
   1670.51      36.5983      6.26893    
   1697.53      36.5498      6.13145    
   1724.99      36.4984      5.99714    
   1752.89      36.4425      5.86328    
   1781.24      36.3807      5.73151    
   1810.05      36.3129      5.60197    
   1839.32      36.2387      5.47539    
   1869.07      36.1582      5.35178    
   1899.30      36.0715      5.23118    
   1930.02      35.9779      5.11290    
   1961.24      35.8765      4.99737    
   1992.96      35.7666      4.88481    
   2025.20      35.6501      4.77624    
   2057.95      35.5241      4.66695    
   2091.24      35.3858      4.55979    
   2125.06      35.2346      4.45478    
   2159.43      35.0688      4.35192    
   2194.36      34.8864      4.25115    
   2229.85      34.6844      4.15241    
   2265.92      34.4595      4.05568    
   2302.57      34.2072      3.96096    
   2339.81      33.9212      3.86811    
   2377.66      33.5934      3.77722    
   2416.11      33.2118      3.68816    
   2455.19      32.7585      3.60095    
   2494.90      32.2052      3.51552    
   2535.26      31.5020      3.43186    
   2576.26      30.5482      3.34994    
   2617.93      29.0794      3.26969    
   2660.27      25.7283      3.19110    
   2676.80      12.8319      3.16127    
   2677.00      12.8336      11.0693    
   2703.30      26.6708      10.9097    
   2747.03      28.4483      10.6527    
   2791.46      25.6981      10.4016    
   2793.10      22.1757      10.3925    
   2793.30      22.1803      14.3074    
   2836.61      30.6058      14.0749    
   2882.49      32.1711      13.8366    
   2929.11      33.1956      13.6029    
   2976.48      33.9061      13.3728    
   3024.63      34.1676      13.1468    
   3042.40      32.2661      13.0652    
   3042.60      32.2700      14.3922    
   3073.55      35.1555      14.1871    
   3123.26      36.1763      13.8680    
   3173.78      36.9158      13.5539    
   3225.11      37.5266      13.2442    
   3277.27      38.0531      12.9395    
   3330.28      38.5172      12.6397    
   3384.15      38.9310      12.3443    
   3438.88      39.3038      12.0547    
   3494.50      39.6418      11.7696    
   3551.02      39.9493      11.4895    
   3608.46      40.2303      11.2147    
   3666.82      40.4876      10.9448    
   3726.13      40.7241      10.6805    
   3786.40      40.9421      10.4208    
   3847.64      41.1421      10.1656    
   3909.87      41.3263      9.91610    
   3973.11      41.4964      9.67151    
   4037.38      41.6533      9.43192    
   4102.68      41.7980      9.19719    
   4169.03      41.9315      8.96736    
   4236.46      42.0546      8.74243    
   4304.98      42.1681      8.52225    
   4374.62      42.2725      8.30675    
   4445.37      42.3686      8.09594    
   4517.27      42.4568      7.88983    
   4590.33      42.5378      7.68828    
   4664.58      42.6119      7.49120    
   4740.03      42.6797      7.29860    
   4816.69      42.7415      7.11047    
   4894.60      42.7978      6.92660    
   4973.77      42.8488      6.74687    
   5054.21      42.8948      6.57146    
   5135.96      42.9363      6.40008    
   5219.03      42.9734      6.23282    
   5303.44      43.0065      6.06949    
   5389.22      43.0358      5.91010    
   5476.39      43.0616      5.75450    
   5564.97      43.0839      5.60265    
   5654.98      43.1031      5.45455    
   5746.44      43.1194      5.30998    
   5839.39      43.1329      5.16904    
   5933.83      43.1437      5.03150    
   6029.81      43.1521      4.89738    
   6127.33      43.1582      4.76666    
   6226.44      43.1621      4.63916    
   6327.15      43.1640      4.51495    
   6429.48      43.1641      4.39381    
   6533.48      43.1623      4.27569    
   6639.15      43.1589      4.16057    
   6746.54      43.1539      4.04840    
   6855.65      43.1474      3.93912    
   6966.54      43.1395      3.83261    
   7079.22      43.1304      3.72891    
   7193.72      43.1201      3.62786    
   7310.07      43.1086      3.52934    
   7428.31      43.0961      3.43356    
   7548.45      43.0827      3.34007    
   7670.54      43.0683      3.24908    
   7794.61      43.0530      3.16052    
   7920.68      43.0370      3.07424    
   8048.79      43.0201      2.99023    
   8178.98      43.0026      2.90849    
   8311.26      42.9844      2.82887    
   8445.69      42.9657      2.75144    
   8582.29      42.9464      2.67584    
   8721.11      42.9265      2.60243    
   8862.16      42.9061      2.53091    
   9005.50      42.8853      2.46127    
   9151.16      42.8639      2.39355    
   9299.17      42.8422      2.32769    
   9449.58      42.8201      2.26360    
   9602.42      42.7977      2.20111    
   9757.73      42.7749      2.14033    
   9915.55      42.7517      2.08123    
   10075.9      42.7282      2.02369    
   10238.9      42.7044      1.96771    
   10404.5      42.6803      1.91324    
   10572.8      42.6559      1.86024    
   10743.8      42.6312      1.80868    
   10917.6      42.6062      1.75851    
   11094.2      42.5808      1.70970    
   11273.6      42.5552      1.66222    
   11455.9      42.5293      1.61603    
   11641.2      42.5030      1.57109    
   11829.5      42.4764      1.52737    
   12020.8      42.4494      1.48485    
   12215.3      42.4221      1.44348    
   12412.8      42.3943      1.40324    
   12613.6      42.3661      1.36410    
   12817.6      42.3375      1.32603    
   13025.0      42.3083      1.28899    
   13235.6      42.2786      1.25297    
   13449.7      42.2483      1.21793    
   13667.2      42.2173      1.18385    
   13888.3      42.1856      1.15070    
   14112.9      42.1531      1.11846    
   14341.2      42.1196      1.08709    
   14573.1      42.0852      1.05659    
   14808.9      42.0496      1.02692    
   15048.4      42.0128     0.998065    
   15291.8      41.9745     0.969997    
   15539.1      41.9347     0.942699    
   15790.4      41.8930     0.916146    
   16045.8      41.8492     0.890320    
   16305.4      41.8029     0.865201    
   16569.1      41.7539     0.840769    
   16837.1      41.7017     0.817006    
   17109.4      41.6456     0.793892    
   17386.1      41.5849     0.771411    
   17667.4      41.5188     0.749543    
   17953.1      41.4460     0.728274    
   18243.5      41.3650     0.707585    
   18538.6      41.2735     0.687461    
   18838.4      41.1685     0.667887    
   19143.1      41.0452     0.648847    
   19452.7      40.8965     0.630327    
   19767.4      40.7097     0.612310    
   20087.1      40.4610     0.594786    
   20412.0      40.0945     0.577738    
   20742.1      39.4202     0.561154    
   21043.9      31.5802     0.546632    
   21044.1      31.5804      3.65633    
   21077.6      37.3416      3.64736    
   21418.5      39.8013      3.55820    
   21765.0      40.4975      3.47064    
   22117.0      40.9262      3.38468    
   22474.7      41.2375      3.30033    
   22838.2      41.4815      3.21759    
   23207.6      41.6813      3.13646    
   23583.0      41.8496      3.05694    
   23964.4      41.9943      2.97901    
   24352.0      42.1203      2.90268    
   24745.9      42.2314      2.82793    
   25146.2      42.3300      2.75475    
   25552.9      42.4181      2.68313    
   25966.2      42.4972      2.61305    
   26386.1      42.5686      2.54450    
   26812.9      42.6331      2.47747    
   27246.6      42.6917      2.41193    
   27687.3      42.7449      2.34787    
   28135.1      42.7933      2.28527    
   28590.2      42.8375      2.22410    
   29052.6      42.8782      2.16436    
   29522.5      42.9209      2.10602    
   30000.0      42.9302      2.04905    
