 te, Z=52, (Energy (eV),f1,f2)
   10.0000     -9999.00      9.70237    
   10.1617     -9999.00      9.72653    
   10.3261     -9999.00      9.75076    
   10.4931     -9999.00      9.77506    
   10.6628     -9999.00      9.79940    
   10.8353     -9999.00      9.77638    
   11.0106     -9999.00      9.72308    
   11.1886     -9999.00      9.67008    
   11.3696     -9999.00      9.61736    
   11.5535     -9999.00      9.54395    
   11.7404     -9999.00      9.46085    
   11.9303     -9999.00      9.37848    
   12.1232     -9999.00      9.29150    
   12.3193     -9999.00      9.19140    
   12.5186     -9999.00      9.09238    
   12.7210     -9999.00      8.99443    
   12.9268     -9999.00      8.90490    
   13.1359     -9999.00      8.81998    
   13.3483     -9999.00      8.73588    
   13.5642     -9999.00      8.65256    
   13.7836     -9999.00      8.32120    
   14.0066     -9999.00      7.97096    
   14.2331     -9999.00      7.65865    
   14.4633     -9999.00      7.37439    
   14.6973     -9999.00      7.07333    
   14.9350     -9999.00      6.76248    
   15.1765     -9999.00      6.46529    
   15.4220     -9999.00      6.20847    
   15.6714     -9999.00      5.96465    
   15.9249     -9999.00      5.75268    
   16.1825     -9999.00      5.61163    
   16.4442     -9999.00      5.47404    
   16.7102     -9999.00      5.33982    
   16.9805     -9999.00      5.19298    
   17.2551     -9999.00      5.01356    
   17.5342     -9999.00      4.84034    
   17.8178     -9999.00      4.67310    
   18.1060     -9999.00      4.51347    
   18.3989     -9999.00      4.36101    
   18.6964     -9999.00      4.21371    
   18.9988     -9999.00      4.07139    
   19.3061     -9999.00      3.93243    
   19.6184     -9999.00      3.79030    
   19.9357     -9999.00      3.65331    
   20.2582     -9999.00      3.44444    
   20.5858     -9999.00      3.21816    
   20.9188     -9999.00      3.02493    
   21.2571     -9999.00      2.84787    
   21.6009     -9999.00      2.71658    
   21.9503     -9999.00      2.59134    
   22.3053     -9999.00      2.45805    
   22.6661     -9999.00      2.32492    
   23.0327     -9999.00      2.14513    
   23.4053     -9999.00      1.97252    
   23.7838     -9999.00      1.88535    
   24.1685     -9999.00      1.80203    
   24.5594     -9999.00      1.71319    
   24.9566     -9999.00      1.60315    
   25.3603     -9999.00      1.49563    
   25.7705     -9999.00      1.38815    
   26.1873     -9999.00      1.29731    
   26.6109     -9999.00      1.23174    
   27.0413     -9999.00      1.16940    
   27.4786     -9999.00      1.10701    
   27.9231     -9999.00      1.04796    
   28.3747     -9999.00     0.977697    
   28.8337     -9999.00     0.901840    
   29.3000      4.66549     0.844635    
   29.7739      4.51435     0.819874    
   30.2555      4.37442     0.795837    
   30.7449      4.23907     0.769363    
   31.2421      4.09926     0.740463    
   31.7475      3.95604     0.711461    
   32.2609      3.80382     0.679349    
   32.7827      3.63674     0.651564    
   33.3130      3.46693     0.642369    
   33.8518      3.29761     0.633303    
   34.3993      3.12308     0.624365    
   34.9557      2.94210     0.620165    
   35.5211      2.75495     0.616361    
   36.0956      2.55765     0.612579    
   36.6794      2.34757     0.612202    
   37.2727      2.12557     0.613164    
   37.8755      1.88656     0.614129    
   38.4882      1.62431     0.615267    
   39.1107      1.33139     0.617596    
   39.7432     0.993601     0.619936    
   40.3861     0.583056     0.627144    
   41.0393     0.143339E-01 0.639935    
   41.7031    -0.929514     0.819245    
   42.3776     -1.92937      1.82459    
   43.0630    -0.626741      3.56658    
   43.7595     0.121031      3.24620    
   44.4673     0.202208      2.84244    
   45.1865    -0.384846E-01  2.52394    
   45.9174    -0.434534      2.29379    
   46.6600     -1.16650      2.30390    
   47.4147     -1.71905      2.65964    
   48.1816     -2.07132      3.04134    
   48.9609     -2.42488      3.37898    
   49.7528     -2.77063      3.74833    
   50.5576     -3.11558      4.14647    
   51.3753     -3.46176      4.58690    
   52.2062     -3.79519      5.11915    
   53.0506     -4.00432      5.73446    
   53.9087     -4.16388      6.19007    
   54.7806     -4.37055      6.67913    
   55.6667     -4.59082      7.20044    
   56.5670     -4.82099      7.75616    
   57.4820     -5.06818      8.35480    
   58.4117     -5.29783      9.07518    
   59.3564     -5.44403      9.86977    
   60.3165     -5.44933      10.7339    
   61.2921     -5.35417      11.4165    
   62.2834     -5.33990      12.0916    
   63.2908     -5.37272      12.8499    
   64.3145     -5.34097      13.6901    
   65.3547     -5.23072      14.5851    
   66.4118     -4.98193      15.5387    
   67.4859     -4.63444      16.3146    
   68.5775     -4.33613      17.0857    
   69.6867     -4.03957      17.8933    
   70.8138     -3.70316      18.7391    
   71.9591     -3.29868      19.6248    
   73.1230     -2.75174      20.4734    
   74.3057     -2.24552      21.2461    
   75.5076     -1.74216      22.0480    
   76.7289     -1.22224      22.9240    
   77.9699    -0.590245      23.8649    
   79.2310     0.220840      24.8127    
   80.5125      1.07313      25.6337    
   81.8147      1.95946      26.4817    
   83.1380      2.95256      27.3386    
   84.4827      4.04183      28.1851    
   85.8491      5.34082      29.0579    
   87.2377      6.76500      29.5799    
   88.6487      8.11641      30.0536    
   90.0825      9.47543      30.5348    
   91.5395      10.9340      31.0238    
   93.0201      12.6284      31.5207    
   94.5246      14.4792      31.6132    
   96.0535      16.1942      31.5762    
   97.6071      17.9369      31.5391    
   99.1858      19.8977      31.5022    
   100.790      22.1452      30.9673    
   102.420      24.0618      30.1064    
   104.077      25.9762      29.2695    
   105.760      28.5945      27.8425    
   107.471      30.2059      25.5986    
   109.209      31.1504      23.5356    
   110.975      31.8342      21.6388    
   112.770      32.3748      19.8949    
   114.594      32.9718      18.2915    
   116.448      33.5739      16.1379    
   118.331      33.5231      13.9535    
   120.245      33.0690      12.0647    
   122.190      32.4406      10.4316    
   124.166      31.6745      9.03391    
   126.175      30.8947      7.90432    
   128.215      30.1341      6.91598    
   130.289      29.3754      6.05125    
   132.397      28.6234      5.29464    
   134.538      27.8788      4.63261    
   136.714      27.1440      4.05337    
   138.925      26.4146      3.54654    
   141.172      25.6791      3.10310    
   143.456      24.9069      2.77197    
   145.776      24.2260      2.54912    
   148.134      23.5780      2.34418    
   150.530      22.8673      2.22832    
   152.964      22.2811      2.23271    
   155.439      21.7876      2.23711    
   157.953      21.3333      2.24152    
   160.507      20.8875      2.25635    
   163.103      20.4837      2.30549    
   165.742      20.1167      2.35571    
   168.422      19.7704      2.40703    
   171.146      19.4298      2.45946    
   173.915      19.0971      2.54273    
   176.727      18.7943      2.64275    
   179.586      18.5077      2.74670    
   182.491      18.2378      2.87381    
   185.442      17.9924      3.01015    
   188.442      17.7687      3.15297    
   191.489      17.5641      3.30256    
   194.587      17.3793      3.45926    
   197.734      17.2212      3.62338    
   200.932      17.0783      3.76835    
   204.182      16.9417      3.91758    
   207.485      16.8142      4.07273    
   210.840      16.6998      4.23402    
   214.251      16.6011      4.40169    
   217.716      16.5255      4.57601    
   221.237      16.4843      4.73000    
   224.816      16.4354      4.86332    
   228.452      16.3813      5.00038    
   232.147      16.3330      5.14132    
   235.902      16.2926      5.28623    
   239.717      16.2631      5.43521    
   243.595      16.2532      5.58840    
   247.535      16.2667      5.72257    
   251.538      16.2704      5.83748    
   255.607      16.2716      5.95471    
   259.741      16.2763      6.07429    
   263.942      16.2881      6.19626    
   268.211      16.3124      6.32069    
   272.549      16.3690      6.44260    
   276.957      16.4173      6.50829    
   281.437      16.4493      6.57465    
   285.989      16.4719      6.64169    
   290.615      16.4908      6.70941    
   295.315      16.5075      6.77782    
   300.092      16.5236      6.84693    
   304.945      16.5401      6.91674    
   309.878      16.5584      6.98727    
   314.890      16.5802      7.05852    
   319.983      16.6084      7.13049    
   325.158      16.6672      7.20319    
   330.418      16.7215      7.21670    
   335.762      16.7469      7.22331    
   341.192      16.7570      7.22993    
   346.711      16.7567      7.23657    
   352.319      16.7481      7.24320    
   358.017      16.7328      7.24984    
   363.808      16.7126      7.25649    
   369.692      16.6896      7.26314    
   375.672      16.6670      7.26980    
   381.748      16.6929      7.27196    
   387.922      16.6825      7.16808    
   394.197      16.6085      7.06571    
   400.573      16.4966      6.96479    
   407.052      16.3510      6.86530    
   413.635      16.1716      6.76725    
   420.326      15.9554      6.67059    
   427.124      15.6874      6.57686    
   434.032      15.3957      6.52987    
   441.052      15.0843      6.48322    
   448.186      14.7445      6.43691    
   455.435      14.3667      6.39093    
   462.802      13.9434      6.34527    
   470.287      13.4659      6.29995    
   477.894      12.9230      6.25495    
   485.623      12.3007      6.21026    
   493.478      11.5506      6.17379    
   501.459      10.7071      6.19347    
   509.570      9.75004      6.21321    
   517.812      8.61606      6.23302    
   526.187      7.19534      6.25289    
   534.698      5.40571      6.37474    
   543.346      3.15720      6.57361    
   552.134    -0.113654E-01  6.77867    
   561.065     -5.23200      7.25851    
   570.139     -18.5842      8.01168    
   572.900     -52.3115      8.25338    
   573.100     -52.2341      40.3200    
   579.361     -8.43237      39.5620    
   588.732      1.87282      38.4686    
   598.254      7.39573      37.4054    
   607.930      11.1658      36.3717    
   617.763      13.9686      35.3665    
   627.755      16.1006      34.3891    
   637.908      17.6092      33.6322    
   648.226      18.9882      33.1867    
   658.711      20.3429      32.7472    
   669.365      21.5864      32.3134    
   680.191      22.7433      31.8854    
   691.193      23.8722      31.4631    
   702.372      24.8919      30.8824    
   713.733      25.7608      30.2964    
   725.277      26.4947      29.7216    
   737.008      27.1146      29.1576    
   748.928      27.5810      28.6044    
   761.042      27.8845      28.1608    
   773.351      28.1829      27.8626    
   785.859      28.4565      27.5675    
   798.570      28.2572      27.2803    
   811.486      28.2393      27.8616    
   824.611      28.6851      28.4553    
   837.949      29.3900      29.0617    
   851.502      30.7858      29.4727    
   865.274      31.9964      29.1527    
   879.269      32.8390      28.8362    
   893.491      33.6140      28.5232    
   907.943      34.3351      28.1796    
   922.628      34.9868      27.8200    
   937.551      35.5695      27.4650    
   952.715      36.0543      27.1145    
   968.124      36.5342      26.9431    
   983.783      37.1002      26.8099    
   999.695      37.7876      26.6442    
   1015.86      38.5881      26.4217    
   1032.29      39.3056      25.9082    
   1048.99      39.9085      25.3964    
   1065.96      40.4270      24.8883    
   1083.20      40.8939      24.3903    
   1100.72      41.3203      23.9023    
   1118.52      41.7132      23.4240    
   1136.61      42.0773      22.9555    
   1155.00      42.4162      22.4962    
   1173.68      42.7323      22.0460    
   1192.66      43.0281      21.6051    
   1211.95      43.3055      21.1729    
   1231.55      43.5656      20.7492    
   1251.47      43.8099      20.3347    
   1271.72      44.0399      19.9290    
   1292.29      44.2573      19.5319    
   1313.19      44.4628      19.1427    
   1334.43      44.6572      18.7613    
   1356.01      44.8414      18.3876    
   1377.94      45.0163      18.0214    
   1400.23      45.1828      17.6624    
   1422.88      45.3416      17.3105    
   1445.89      45.4945      16.9656    
   1469.28      45.6439      16.6252    
   1493.04      45.7907      16.2879    
   1517.19      45.9264      15.9423    
   1541.73      46.0481      15.6020    
   1566.67      46.1584      15.2691    
   1592.01      46.2599      14.9432    
   1617.76      46.3538      14.6242    
   1643.92      46.4409      14.3119    
   1670.51      46.5222      14.0063    
   1697.53      46.5981      13.7073    
   1724.99      46.6750      13.4147    
   1752.89      46.7465      13.1176    
   1781.24      46.8082      12.8234    
   1810.05      46.8607      12.5328    
   1839.32      46.9045      12.2487    
   1869.07      46.9417      11.9710    
   1899.30      46.9728      11.6995    
   1930.02      46.9986      11.4343    
   1961.24      47.0195      11.1752    
   1992.96      47.0339      10.9220    
   2025.20      47.0514      10.6800    
   2057.95      47.0659      10.4326    
   2091.24      47.0720      10.1900    
   2125.06      47.0728      9.95209    
   2159.43      47.0690      9.71947    
   2194.36      47.0609      9.49115    
   2229.85      47.0480      9.26714    
   2265.92      47.0307      9.04814    
   2302.57      47.0090      8.83346    
   2339.81      46.9835      8.62396    
   2377.66      46.9542      8.41836    
   2416.11      46.9204      8.21687    
   2455.19      46.8830      8.02045    
   2494.90      46.8413      7.82754    
   2535.26      46.7959      7.63953    
   2576.26      46.7465      7.45519    
   2617.93      46.6929      7.27509    
   2660.27      46.6353      7.09909    
   2703.30      46.5736      6.92695    
   2747.03      46.5075      6.75870    
   2791.46      46.4371      6.59429    
   2836.61      46.3622      6.43359    
   2882.49      46.2825      6.27661    
   2929.11      46.1977      6.12319    
   2976.48      46.1077      5.97338    
   3024.63      46.0121      5.82702    
   3073.55      45.9106      5.68416    
   3123.26      45.8026      5.54454    
   3173.78      45.6875      5.40824    
   3225.11      45.5649      5.27515    
   3277.27      45.4338      5.14520    
   3330.28      45.2934      5.01833    
   3384.15      45.1426      4.89453    
   3438.88      44.9800      4.77363    
   3494.50      44.8040      4.65571    
   3551.02      44.6127      4.54053    
   3608.46      44.4033      4.42815    
   3666.82      44.1728      4.31851    
   3726.13      43.9170      4.21152    
   3786.40      43.6303      4.10716    
   3847.64      43.3051      4.00531    
   3909.87      42.9306      3.90593    
   3973.11      42.4907      3.80893    
   4037.38      41.9598      3.71440    
   4102.68      41.2938      3.62216    
   4169.03      40.4045      3.53212    
   4236.46      39.0689      3.44428    
   4304.98      36.3202      3.35866    
   4341.30      21.2235      3.31469    
   4341.50      21.2252      11.3604    
   4374.62      36.0199      11.2248    
   4445.37      38.6748      10.9438    
   4517.27      39.4443      10.6700    
   4590.33      38.6508      10.4029    
   4611.90      32.3643      10.3262    
   4612.10      32.3691      14.1634    
   4664.58      40.4554      13.9109    
   4740.03      42.0405      13.5604    
   4816.69      42.9005      13.2188    
   4894.60      43.2781      12.8855    
   4939.10      40.4125      12.7013    
   4939.30      40.4171      14.4492    
   4973.77      43.7779      14.3075    
   5054.21      45.0467      13.9858    
   5135.96      45.8702      13.6686    
   5219.03      46.5284      13.3558    
   5303.44      47.0861      13.0477    
   5389.22      47.5719      12.7443    
   5476.39      48.0020      12.4458    
   5564.97      48.3871      12.1521    
   5654.98      48.7342      11.8635    
   5746.44      49.0489      11.5798    
   5839.39      49.3354      11.3010    
   5933.83      49.5970      11.0274    
   6029.81      49.8365      10.7586    
   6127.33      50.0560      10.4950    
   6226.44      50.2576      10.2364    
   6327.15      50.4430      9.98292    
   6429.48      50.6134      9.73437    
   6533.48      50.7700      9.49083    
   6639.15      50.9142      9.25244    
   6746.54      51.0469      9.01886    
   6855.65      51.1689      8.79031    
   6966.54      51.2812      8.56648    
   7079.22      51.3840      8.34731    
   7193.72      51.4782      8.13295    
   7310.07      51.5645      7.92342    
   7428.31      51.6434      7.71862    
   7548.45      51.7154      7.51829    
   7670.54      51.7809      7.32240    
   7794.61      51.8401      7.13101    
   7920.68      51.8938      6.94428    
   8048.79      51.9423      6.76162    
   8178.98      51.9856      6.58325    
   8311.26      52.0244      6.40927    
   8445.69      52.0589      6.23916    
   8582.29      52.0889      6.07317    
   8721.11      52.1152      5.91143    
   8862.16      52.1381      5.75344    
   9005.50      52.1575      5.59935    
   9151.16      52.1738      5.44897    
   9299.17      52.1870      5.30225    
   9449.58      52.1975      5.15935    
   9602.42      52.2054      5.01995    
   9757.73      52.2108      4.88385    
   9915.55      52.2139      4.75128    
   10075.9      52.2148      4.62211    
   10238.9      52.2136      4.49623    
   10404.5      52.2106      4.37356    
   10572.8      52.2058      4.25403    
   10743.8      52.1994      4.13759    
   10917.6      52.1914      4.02415    
   11094.2      52.1820      3.91366    
   11273.6      52.1712      3.80605    
   11455.9      52.1591      3.70125    
   11641.2      52.1459      3.59921    
   11829.5      52.1316      3.49984    
   12020.8      52.1162      3.40311    
   12215.3      52.0998      3.30894    
   12412.8      52.0826      3.21727    
   12613.6      52.0645      3.12804    
   12817.6      52.0457      3.04120    
   13025.0      52.0261      2.95669    
   13235.6      52.0059      2.87445    
   13449.7      51.9850      2.79443    
   13667.2      51.9635      2.71657    
   13888.3      51.9415      2.64082    
   14112.9      51.9189      2.56713    
   14341.2      51.8959      2.49544    
   14573.1      51.8724      2.42570    
   14808.9      51.8485      2.35788    
   15048.4      51.8242      2.29191    
   15291.8      51.7995      2.22775    
   15539.1      51.7745      2.16535    
   15790.4      51.7491      2.10468    
   16045.8      51.7233      2.04568    
   16305.4      51.6973      1.98830    
   16569.1      51.6709      1.93252    
   16837.1      51.6441      1.87829    
   17109.4      51.6171      1.82556    
   17386.1      51.5898      1.77430    
   17667.4      51.5621      1.72447    
   17953.1      51.5341      1.67603    
   18243.5      51.5058      1.62894    
   18538.6      51.4771      1.58317    
   18838.4      51.4480      1.53868    
   19143.1      51.4185      1.49544    
   19452.7      51.3886      1.45342    
   19767.4      51.3582      1.41257    
   20087.1      51.3272      1.37288    
   20412.0      51.2958      1.33430    
   20742.1      51.2637      1.29681    
   21077.6      51.2309      1.26038    
   21418.5      51.1974      1.22498    
   21765.0      51.1631      1.19058    
   22117.0      51.1278      1.15716    
   22474.7      51.0915      1.12468    
   22838.2      51.0539      1.09312    
   23207.6      51.0151      1.06246    
   23583.0      50.9748      1.03267    
   23964.4      50.9327      1.00373    
   24352.0      50.8886     0.975603    
   24745.9      50.8422     0.948281    
   25146.2      50.7932     0.921736    
   25552.9      50.7411     0.895949    
   25966.2      50.6853     0.870896    
   26386.1      50.6250     0.846556    
   26812.9      50.5595     0.822911    
   27246.6      50.4875     0.799940    
   27687.3      50.4074     0.777626    
   28135.1      50.3169     0.755948    
   28590.2      50.2129     0.734890    
   29052.6      50.0908     0.714433    
   29522.5      49.9444     0.694560    
   30000.0      49.7483     0.675257    
