 ti, Z=22, (Energy (eV),f1,f2)
   10.0000     -9999.00      2.38456    
   10.1617     -9999.00      2.37555    
   10.3261     -9999.00      2.36658    
   10.4931     -9999.00      2.35765    
   10.6628     -9999.00      2.34874    
   10.8353     -9999.00      2.33987    
   11.0106     -9999.00      2.33104    
   11.1886     -9999.00      2.32572    
   11.3696     -9999.00      2.32484    
   11.5535     -9999.00      2.32396    
   11.7404     -9999.00      2.32308    
   11.9303     -9999.00      2.32221    
   12.1232     -9999.00      2.32133    
   12.3193     -9999.00      2.32045    
   12.5186     -9999.00      2.31958    
   12.7210     -9999.00      2.31870    
   12.9268     -9999.00      2.31783    
   13.1359     -9999.00      2.31695    
   13.3483     -9999.00      2.31608    
   13.5642     -9999.00      2.31824    
   13.7836     -9999.00      2.32115    
   14.0066     -9999.00      2.32406    
   14.2331     -9999.00      2.32697    
   14.4633     -9999.00      2.32989    
   14.6973     -9999.00      2.33281    
   14.9350     -9999.00      2.33573    
   15.1765     -9999.00      2.34122    
   15.4220     -9999.00      2.34677    
   15.6714     -9999.00      2.35234    
   15.9249     -9999.00      2.35791    
   16.1825     -9999.00      2.36351    
   16.4442     -9999.00      2.37618    
   16.7102     -9999.00      2.39319    
   16.9805     -9999.00      2.41032    
   17.2551     -9999.00      2.42885    
   17.5342     -9999.00      2.46979    
   17.8178     -9999.00      2.51143    
   18.1060     -9999.00      2.55377    
   18.3989     -9999.00      2.59682    
   18.6964     -9999.00      2.64495    
   18.9988     -9999.00      2.70692    
   19.3061     -9999.00      2.77035    
   19.6184     -9999.00      2.83526    
   19.9357     -9999.00      2.93286    
   20.2582     -9999.00      3.04925    
   20.5858     -9999.00      3.17025    
   20.9188     -9999.00      3.30828    
   21.2571     -9999.00      3.46104    
   21.6009     -9999.00      3.62084    
   21.9503     -9999.00      3.78803    
   22.3053     -9999.00      3.96294    
   22.6661     -9999.00      4.14592    
   23.0327     -9999.00      4.26843    
   23.4053     -9999.00      4.37668    
   23.7838     -9999.00      4.48768    
   24.1685     -9999.00      4.60150    
   24.5594     -9999.00      4.71819    
   24.9566     -9999.00      4.83786    
   25.3603     -9999.00      4.91587    
   25.7705     -9999.00      4.95342    
   26.1873     -9999.00      4.99126    
   26.6109     -9999.00      5.02939    
   27.0413     -9999.00      5.06781    
   27.4786     -9999.00      5.05289    
   27.9231     -9999.00      4.99747    
   28.3747     -9999.00      4.94266    
   28.8337     -9999.00      4.88845    
   29.3000      2.27863      4.83484    
   29.7739      2.26302      4.77767    
   30.2555      2.21560      4.72068    
   30.7449      2.12534      4.66438    
   31.2421      1.96940      4.65287    
   31.7475      1.81449      4.72636    
   32.2609      1.69655      4.80102    
   32.7827      1.55941      4.87685    
   33.3130      1.36802      4.98488    
   33.8518      1.18440      5.19195    
   34.3993      1.05557      5.40762    
   34.9557     0.923268      5.63225    
   35.5211     0.776736      5.90198    
   36.0956     0.656309      6.22897    
   36.6794     0.575787      6.57407    
   37.2727     0.508507      6.93830    
   37.8755     0.448347      7.34882    
   38.4882     0.429323      7.81476    
   39.1107     0.465914      8.31024    
   39.7432     0.551386      8.83714    
   40.3861     0.705481      9.39744    
   41.0393     0.926428      9.96367    
   41.7031      1.20569      10.5594    
   42.3776      1.57864      11.1907    
   43.0630      2.17717      11.8410    
   43.7595      2.86386      12.2348    
   44.4673      3.53030      12.6416    
   45.1865      4.27191      12.9275    
   45.9174      4.99547      13.1541    
   46.6600      5.81039      13.3846    
   47.4147      6.66221      13.3404    
   48.1816      7.41583      13.2926    
   48.9609      8.21005      13.2134    
   49.7528      8.99189      13.0142    
   50.5576      9.87913      12.8180    
   51.3753      10.7654      12.2500    
   52.2062      11.3311      11.5830    
   53.0506      11.7574      10.9523    
   53.9087      12.0921      10.3560    
   54.7806      12.3673      9.79211    
   55.6667      12.5843      9.21805    
   56.5670      12.7330      8.67767    
   57.4820      12.8383      8.16894    
   58.4117      12.9183      7.69006    
   59.3564      12.9794      7.20058    
   60.3165      12.9818      6.70340    
   61.2921      12.9157      6.24055    
   62.2834      12.7967      5.80968    
   63.2908      12.6495      5.46644    
   64.3145      12.5124      5.14676    
   65.3547      12.3638      4.84578    
   66.4118      12.1983      4.56240    
   67.4859      11.9609      4.29559    
   68.5775      11.7093      4.16251    
   69.6867      11.5432      4.05894    
   70.8138      11.3955      3.95795    
   71.9591      11.2499      3.85948    
   73.1230      11.1054      3.78039    
   74.3057      10.9646      3.71807    
   75.5076      10.8366      3.68632    
   76.7289      10.7337      3.65484    
   77.9699      10.6313      3.62362    
   79.2310      10.5320      3.61766    
   80.5125      10.4529      3.61860    
   81.8147      10.3870      3.61953    
   83.1380      10.3284      3.62046    
   84.4827      10.2655      3.62139    
   85.8491      10.2071      3.64392    
   87.2377      10.1702      3.67029    
   88.6487      10.1433      3.69685    
   90.0825      10.1254      3.72360    
   91.5395      10.1157      3.75055    
   93.0201      10.1143      3.77769    
   94.5246      10.1212      3.80503    
   96.0535      10.1464      3.83256    
   97.6071      10.1807      3.83855    
   99.1858      10.2045      3.83573    
   100.790      10.2259      3.83291    
   102.420      10.2471      3.83010    
   104.077      10.2690      3.82728    
   105.760      10.2924      3.82447    
   107.471      10.3179      3.82166    
   109.209      10.3491      3.81886    
   110.975      10.3868      3.81121    
   112.770      10.4222      3.78556    
   114.594      10.4479      3.76009    
   116.448      10.4690      3.73479    
   118.331      10.4863      3.70966    
   120.245      10.4999      3.68471    
   122.190      10.5095      3.65991    
   124.166      10.5041      3.63529    
   126.175      10.4947      3.63501    
   128.215      10.5022      3.63961    
   130.289      10.5141      3.64421    
   132.397      10.5296      3.64882    
   134.538      10.5480      3.65343    
   136.714      10.5692      3.65805    
   138.925      10.5937      3.66267    
   141.172      10.6209      3.66357    
   143.456      10.6477      3.66345    
   145.776      10.6748      3.66334    
   148.134      10.7029      3.66322    
   150.530      10.7323      3.66310    
   152.964      10.7632      3.66299    
   155.439      10.7961      3.66288    
   157.953      10.8314      3.66276    
   160.507      10.8775      3.66264    
   163.103      10.9258      3.64366    
   165.742      10.9604      3.62325    
   168.422      10.9926      3.60297    
   171.146      11.0223      3.58279    
   173.915      11.0499      3.56273    
   176.727      11.0755      3.54278    
   179.586      11.0988      3.52294    
   182.491      11.1173      3.50489    
   185.442      11.1363      3.49521    
   188.442      11.1613      3.48556    
   191.489      11.1884      3.47593    
   194.587      11.2187      3.46633    
   197.734      11.2562      3.45676    
   200.932      11.2995      3.43062    
   204.182      11.3335      3.39642    
   207.485      11.3593      3.36256    
   210.840      11.3821      3.32903    
   214.251      11.4033      3.29584    
   217.716      11.4256      3.26298    
   221.237      11.4459      3.21703    
   224.816      11.4556      3.17140    
   228.452      11.4592      3.12641    
   232.147      11.4573      3.08207    
   235.902      11.4450      3.03835    
   239.717      11.4278      3.00748    
   243.595      11.4170      2.97875    
   247.535      11.4055      2.95030    
   251.538      11.3936      2.92212    
   255.607      11.3819      2.89421    
   259.741      11.3704      2.86151    
   263.942      11.3535      2.82532    
   268.211      11.3305      2.78959    
   272.549      11.3035      2.75431    
   276.957      11.2727      2.71947    
   281.437      11.2378      2.68422    
   285.989      11.1979      2.64929    
   290.615      11.1532      2.61481    
   295.315      11.1037      2.58078    
   300.092      11.0490      2.54719    
   304.945      10.9891      2.51404    
   309.878      10.9234      2.48110    
   314.890      10.8513      2.44781    
   319.983      10.7718      2.41497    
   325.158      10.6848      2.38257    
   330.418      10.5895      2.35061    
   335.762      10.4852      2.31907    
   341.192      10.3714      2.28796    
   346.711      10.2475      2.25726    
   352.319      10.1146      2.22698    
   358.017      9.96989      2.18470    
   363.808      9.79951      2.13812    
   369.692      9.60261      2.09252    
   375.672      9.37848      2.04790    
   381.748      9.12070      2.00423    
   387.922      8.82370      1.96503    
   394.197      8.48753      1.93947    
   400.573      8.10598      1.91164    
   407.052      7.65755      1.88318    
   413.635      7.12029      1.85515    
   420.326      6.45861      1.82754    
   427.124      5.61123      1.80033    
   434.032      4.45863      1.77351    
   441.052      2.71435      1.74711    
   448.186    -0.679332      1.72112    
   453.700     -18.2884      1.70156    
   453.900     -18.2691      15.6456    
   455.435     -5.76893      15.5845    
   462.802      2.08580      15.2973    
   470.287      4.96679      15.0155    
   477.894      6.79840      14.7389    
   485.623      8.14683      14.4673    
   493.478      9.21100      14.2007    
   501.459      10.0843      13.9392    
   509.570      10.8175      13.6824    
   517.812      11.4398      13.4303    
   526.187      11.9676      13.1825    
   534.698      12.4079      12.9397    
   543.346      12.7632      12.7014    
   552.134      12.8659      12.4676    
   561.065      12.8684      12.6328    
   570.139      13.2025      12.9952    
   579.361      13.8081      13.3681    
   588.732      14.6565      13.3580    
   598.254      15.3266      13.1020    
   607.930      15.8140      12.8510    
   617.763      16.2476      12.6048    
   627.755      16.6407      12.3626    
   637.908      17.0021      12.1171    
   648.226      17.3325      11.8653    
   658.711      17.6283      11.6115    
   669.365      17.8818      11.3625    
   680.191      18.1077      11.1436    
   691.193      18.3374      10.9478    
   702.372      18.5732      10.7585    
   713.733      18.8142      10.5467    
   725.277      19.0312      10.3216    
   737.008      19.2245      10.1014    
   748.928      19.4045      9.88576    
   761.042      19.5731      9.67465    
   773.351      19.7319      9.46726    
   785.859      19.8817      9.26165    
   798.570      20.0208      9.05835    
   811.486      20.1500      8.85950    
   824.611      20.2710      8.66501    
   837.949      20.3849      8.47477    
   851.502      20.4923      8.28800    
   865.274      20.5933      8.10458    
   879.269      20.6881      7.92455    
   893.491      20.7770      7.74846    
   907.943      20.8610      7.57631    
   922.628      20.9425      7.40802    
   937.551      21.0200      7.23839    
   952.715      21.0900      7.07142    
   968.124      21.1545      6.90723    
   983.783      21.2135      6.74687    
   999.695      21.2681      6.59037    
   1015.86      21.3185      6.43766    
   1032.29      21.3663      6.28968    
   1048.99      21.4127      6.14293    
   1065.96      21.4546      5.99728    
   1083.20      21.4919      5.85509    
   1100.72      21.5258      5.71630    
   1118.52      21.5567      5.58081    
   1136.61      21.5849      5.44849    
   1155.00      21.6106      5.31932    
   1173.68      21.6341      5.19325    
   1192.66      21.6555      5.07013    
   1211.95      21.6751      4.94992    
   1231.55      21.6935      4.83257    
   1251.47      21.7108      4.71682    
   1271.72      21.7263      4.60264    
   1292.29      21.7394      4.48977    
   1313.19      21.7496      4.37967    
   1334.43      21.7581      4.27224    
   1356.01      21.7648      4.16739    
   1377.94      21.7700      4.06517    
   1400.23      21.7740      3.96544    
   1422.88      21.7769      3.86813    
   1445.89      21.7791      3.77327    
   1469.28      21.7807      3.68030    
   1493.04      21.7824      3.58895    
   1517.19      21.7832      3.49695    
   1541.73      21.7803      3.40693    
   1566.67      21.7760      3.31928    
   1592.01      21.7705      3.23386    
   1617.76      21.7638      3.15062    
   1643.92      21.7560      3.06952    
   1670.51      21.7474      2.99060    
   1697.53      21.7383      2.91366    
   1724.99      21.7286      2.83861    
   1752.89      21.7184      2.76463    
   1781.24      21.7071      2.69230    
   1810.05      21.6947      2.62170    
   1839.32      21.6816      2.55294    
   1869.07      21.6678      2.48596    
   1899.30      21.6534      2.42070    
   1930.02      21.6384      2.35715    
   1961.24      21.6229      2.29528    
   1992.96      21.6068      2.23505    
   2025.20      21.5904      2.17710    
   2057.95      21.5744      2.11960    
   2091.24      21.5575      2.06352    
   2125.06      21.5401      2.00886    
   2159.43      21.5223      1.95557    
   2194.36      21.5040      1.90367    
   2229.85      21.4853      1.85306    
   2265.92      21.4663      1.80376    
   2302.57      21.4469      1.75573    
   2339.81      21.4272      1.70892    
   2377.66      21.4071      1.66332    
   2416.11      21.3866      1.61889    
   2455.19      21.3658      1.57563    
   2494.90      21.3447      1.53346    
   2535.26      21.3232      1.49241    
   2576.26      21.3013      1.45241    
   2617.93      21.2791      1.41345    
   2660.27      21.2565      1.37554    
   2703.30      21.2335      1.33858    
   2747.03      21.2100      1.30261    
   2791.46      21.1862      1.26756    
   2836.61      21.1619      1.23344    
   2882.49      21.1370      1.20024    
   2929.11      21.1117      1.16787    
   2976.48      21.0858      1.13638    
   3024.63      21.0593      1.10572    
   3073.55      21.0322      1.07587    
   3123.26      21.0043      1.04678    
   3173.78      20.9757      1.01846    
   3225.11      20.9462     0.990907    
   3277.27      20.9158     0.964074    
   3330.28      20.8844     0.937973    
   3384.15      20.8519     0.912540    
   3438.88      20.8181     0.887797    
   3494.50      20.7829     0.863676    
   3551.02      20.7462     0.840234    
   3608.46      20.7078     0.817394    
   3666.82      20.6674     0.795143    
   3726.13      20.6248     0.773490    
   3786.40      20.5797     0.752444    
   3847.64      20.5317     0.731915    
   3909.87      20.4804     0.711976    
   3973.11      20.4253     0.692548    
   4037.38      20.3657     0.673609    
   4102.68      20.3007     0.655204    
   4169.03      20.2293     0.637274    
   4236.46      20.1502     0.619807    
   4304.98      20.0614     0.602855    
   4374.62      19.9606     0.586299    
   4445.37      19.8440     0.570202    
   4517.27      19.7064     0.554551    
   4590.33      19.5394     0.539289    
   4664.58      19.3287     0.524429    
   4740.03      19.0468     0.509971    
   4816.69      18.6300     0.495901    
   4894.60      17.8613     0.482202    
   4966.30      10.4859     0.470113    
   4966.50      10.4865      4.03728    
   4973.77      15.3814      4.02875    
   5054.21      18.2832      3.93636    
   5135.96      19.0881      3.84571    
   5219.03      19.5850      3.75632    
   5303.44      19.9471      3.66816    
   5389.22      20.2321      3.58137    
   5476.39      20.4667      3.49596    
   5564.97      20.6654      3.41191    
   5654.98      20.8369      3.32924    
   5746.44      20.9871      3.24793    
   5839.39      21.1201      3.16813    
   5933.83      21.2389      3.08973    
   6029.81      21.3456      3.01276    
   6127.33      21.4420      2.93722    
   6226.44      21.5294      2.86314    
   6327.15      21.6089      2.79051    
   6429.48      21.6815      2.71928    
   6533.48      21.7478      2.64947    
   6639.15      21.8084      2.58115    
   6746.54      21.8641      2.51425    
   6855.65      21.9152      2.44870    
   6966.54      21.9620      2.38459    
   7079.22      22.0051      2.32187    
   7193.72      22.0446      2.26050    
   7310.07      22.0809      2.20051    
   7428.31      22.1143      2.14182    
   7548.45      22.1448      2.08447    
   7670.54      22.1728      2.02842    
   7794.61      22.1985      1.97371    
   7920.68      22.2219      1.92025    
   8048.79      22.2433      1.86808    
   8178.98      22.2629      1.81708    
   8311.26      22.2806      1.76730    
   8445.69      22.2967      1.71874    
   8582.29      22.3112      1.67137    
   8721.11      22.3243      1.62515    
   8862.16      22.3361      1.58010    
   9005.50      22.3467      1.53610    
   9151.16      22.3559      1.49323    
   9299.17      22.3642      1.45146    
   9449.58      22.3714      1.41072    
   9602.42      22.3777      1.37098    
   9757.73      22.3830      1.33230    
   9915.55      22.3875      1.29456    
   10075.9      22.3913      1.25783    
   10238.9      22.3943      1.22206    
   10404.5      22.3966      1.18721    
   10572.8      22.3983      1.15327    
   10743.8      22.3993      1.12023    
   10917.6      22.3999      1.08806    
   11094.2      22.3999      1.05675    
   11273.6      22.3994      1.02627    
   11455.9      22.3985     0.996600    
   11641.2      22.3972     0.967731    
   11829.5      22.3954     0.939640    
   12020.8      22.3934     0.912310    
   12215.3      22.3910     0.885721    
   12412.8      22.3882     0.859858    
   12613.6      22.3852     0.834702    
   12817.6      22.3820     0.810237    
   13025.0      22.3785     0.786445    
   13235.6      22.3748     0.763310    
   13449.7      22.3709     0.740817    
   13667.2      22.3668     0.718948    
   13888.3      22.3625     0.697690    
   14112.9      22.3581     0.677025    
   14341.2      22.3535     0.656940    
   14573.1      22.3488     0.637420    
   14808.9      22.3440     0.618450    
   15048.4      22.3391     0.600015    
   15291.8      22.3342     0.582103    
   15539.1      22.3291     0.564700    
   15790.4      22.3240     0.547792    
   16045.8      22.3188     0.531367    
   16305.4      22.3136     0.515411    
   16569.1      22.3084     0.499913    
   16837.1      22.3031     0.484860    
   17109.4      22.2978     0.470241    
   17386.1      22.2924     0.456043    
   17667.4      22.2871     0.442256    
   17953.1      22.2818     0.428868    
   18243.5      22.2765     0.415869    
   18538.6      22.2711     0.403248    
   18838.4      22.2658     0.390995    
   19143.1      22.2605     0.379099    
   19452.7      22.2553     0.367551    
   19767.4      22.2500     0.356342    
   20087.1      22.2448     0.345462    
   20412.0      22.2396     0.334901    
   20742.1      22.2345     0.324652    
   21077.6      22.2294     0.314704    
   21418.5      22.2243     0.305051    
   21765.0      22.2193     0.295684    
   22117.0      22.2144     0.286594    
   22474.7      22.2094     0.277774    
   22838.2      22.2046     0.269216    
   23207.6      22.1998     0.260913    
   23583.0      22.1950     0.252857    
   23964.4      22.1903     0.245042    
   24352.0      22.1857     0.237461    
   24745.9      22.1811     0.230107    
   25146.2      22.1766     0.222973    
   25552.9      22.1721     0.216053    
   25966.2      22.1677     0.209342    
   26386.1      22.1634     0.202832    
   26812.9      22.1591     0.196518    
   27246.6      22.1549     0.190395    
   27687.3      22.1507     0.184457    
   28135.1      22.1466     0.178699    
   28590.2      22.1426     0.173115    
   29052.6      22.1387     0.167700    
   29522.5      22.1353     0.162450    
   30000.0      22.1294     0.157359    
