 tl, Z=81, (Energy (eV),f1,f2)
   10.0000     -9999.00      1.80392    
   10.1617     -9999.00      1.75555    
   10.3261     -9999.00      1.69589    
   10.4931     -9999.00      1.59546    
   10.6628     -9999.00      1.46625    
   10.8353     -9999.00      1.39341    
   11.0106     -9999.00      1.31349    
   11.1886     -9999.00      1.20783    
   11.3696     -9999.00      1.13261    
   11.5535     -9999.00      1.07387    
   11.7404     -9999.00      1.03850    
   11.9303     -9999.00      1.04678    
   12.1232     -9999.00      1.05513    
   12.3193     -9999.00      1.09785    
   12.5186     -9999.00      1.15076    
   12.7210     -9999.00      1.28282    
   12.9268     -9999.00      1.45410    
   13.1359     -9999.00      1.64367    
   13.3483     -9999.00      1.87325    
   13.5642     -9999.00      2.14093    
   13.7836     -9999.00      2.33822    
   14.0066     -9999.00      2.53817    
   14.2331     -9999.00      2.75523    
   14.4633     -9999.00      2.89712    
   14.6973     -9999.00      2.99769    
   14.9350     -9999.00      3.10175    
   15.1765     -9999.00      3.18064    
   15.4220     -9999.00      3.25475    
   15.6714     -9999.00      3.25438    
   15.9249     -9999.00      3.24810    
   16.1825     -9999.00      3.24403    
   16.4442     -9999.00      3.26317    
   16.7102     -9999.00      3.28242    
   16.9805     -9999.00      3.30178    
   17.2551     -9999.00      3.32126    
   17.5342     -9999.00      3.36412    
   17.8178     -9999.00      3.41627    
   18.1060     -9999.00      3.46924    
   18.3989     -9999.00      3.52303    
   18.6964     -9999.00      3.57765    
   18.9988     -9999.00      3.63312    
   19.3061     -9999.00      3.68945    
   19.6184     -9999.00      3.74665    
   19.9357     -9999.00      3.83874    
   20.2582     -9999.00      3.95506    
   20.5858     -9999.00      4.07491    
   20.9188     -9999.00      4.19839    
   21.2571     -9999.00      4.32562    
   21.6009     -9999.00      4.45669    
   21.9503     -9999.00      4.59256    
   22.3053     -9999.00      4.76042    
   22.6661     -9999.00      4.93442    
   23.0327     -9999.00      5.11478    
   23.4053     -9999.00      5.30173    
   23.7838     -9999.00      5.49551    
   24.1685     -9999.00      5.69638    
   24.5594     -9999.00      5.90459    
   24.9566     -9999.00      6.12041    
   25.3603     -9999.00      6.34412    
   25.7705     -9999.00      6.57600    
   26.1873     -9999.00      6.82627    
   26.6109     -9999.00      7.09248    
   27.0413     -9999.00      7.36908    
   27.4786     -9999.00      7.65647    
   27.9231     -9999.00      7.95507    
   28.3747     -9999.00      8.26531    
   28.8337     -9999.00      8.58765    
   29.3000     -3.60735      8.90399    
   29.7739     -3.59085      9.22126    
   30.2555     -3.57211      9.54983    
   30.7449     -3.54353      9.89012    
   31.2421     -3.50301      10.2425    
   31.7475     -3.44740      10.6075    
   32.2609     -3.36083      10.9854    
   32.7827     -3.24606      11.3505    
   33.3130     -3.13365      11.6961    
   33.8518     -3.02081      12.0522    
   34.3993     -2.89864      12.4192    
   34.9557     -2.76144      12.7973    
   35.5211     -2.60355      13.1870    
   36.0956     -2.40940      13.5885    
   36.6794     -2.16997      13.9552    
   37.2727     -1.93767      14.2824    
   37.8755     -1.72466      14.6172    
   38.4882     -1.50558      14.9600    
   39.1107     -1.27642      15.3107    
   39.7432     -1.03422      15.6697    
   40.3861    -0.744304      16.0340    
   41.0393    -0.449328      16.3523    
   41.7031    -0.169505      16.6771    
   42.3776     0.118504      17.0082    
   43.0630     0.418172      17.3459    
   43.7595     0.734388      17.6904    
   44.4673      1.07312      18.0416    
   45.1865      1.45427      18.3999    
   45.9174      1.86445      18.7064    
   46.6600      2.26842      18.9914    
   47.4147      2.66665      19.2808    
   48.1816      3.07847      19.5746    
   48.9609      3.51206      19.8729    
   49.7528      3.99169      20.1757    
   50.5576      4.50584      20.4109    
   51.3753      5.00380      20.6080    
   52.2062      5.48214      20.8071    
   53.0506      5.96683      21.0081    
   53.9087      6.46576      21.2110    
   54.7806      7.00078      21.4159    
   55.6667      7.55170      21.5627    
   56.5670      8.09178      21.6939    
   57.4820      8.62719      21.8258    
   58.4117      9.17350      21.9586    
   59.3564      9.73749      22.0922    
   60.3165      10.3276      22.2266    
   61.2921      10.9554      22.3618    
   62.2834      11.6212      22.4979    
   63.2908      12.5465      22.6348    
   64.3145      13.4545      22.3675    
   65.3547      14.1420      22.0606    
   66.4118      14.7531      21.7578    
   67.4859      15.3127      21.4592    
   68.5775      15.8349      21.1647    
   69.6867      16.3290      20.8742    
   70.8138      16.8019      20.5878    
   71.9591      17.2597      20.3052    
   73.1230      17.7091      20.0266    
   74.3057      18.1600      19.7517    
   75.5076      18.6433      19.4807    
   76.7289      19.1508      19.1099    
   77.9699      19.5891      18.6648    
   79.2310      19.9416      18.2301    
   80.5125      20.2554      17.8055    
   81.8147      20.5357      17.3908    
   83.1380      20.7813      16.9873    
   84.4827      21.0108      16.6140    
   85.8491      21.2329      16.2488    
   87.2377      21.4457      15.8917    
   88.6487      21.6507      15.5425    
   90.0825      21.8638      15.2009    
   91.5395      22.0822      14.8415    
   93.0201      22.2700      14.4509    
   94.5246      22.4279      14.0706    
   96.0535      22.5694      13.7003    
   97.6071      22.7012      13.3397    
   99.1858      22.8316      12.9886    
   100.790      22.9928      12.6467    
   102.420      23.1302      12.2105    
   104.077      23.2093      11.7820    
   105.760      23.2520      11.3685    
   107.471      23.2720      10.9696    
   109.209      23.2754      10.5846    
   110.975      23.2643      10.2132    
   112.770      23.2870      9.85479    
   114.594      23.2899      9.42251    
   116.448      23.2141      8.98371    
   118.331      23.0911      8.56533    
   120.245      22.9277      8.16642    
   122.190      22.7129      7.78611    
   124.166      22.4420      7.48454    
   126.175      22.1940      7.27114    
   128.215      21.9951      7.06382    
   130.289      21.8033      6.86241    
   132.397      21.6158      6.66676    
   134.538      21.4332      6.47667    
   136.714      21.2503      6.27829    
   138.925      21.0540      6.07720    
   141.172      20.8415      5.88257    
   143.456      20.6164      5.69416    
   145.776      20.3759      5.51179    
   148.134      20.1201      5.33834    
   150.530      19.8483      5.17084    
   152.964      19.5576      5.00858    
   155.439      19.2086      4.85142    
   157.953      18.8428      4.76902    
   160.507      18.4990      4.69974    
   163.103      18.1467      4.63145    
   165.742      17.7107      4.56417    
   168.422      17.2654      4.62458    
   171.146      16.8776      4.69982    
   173.915      16.4750      4.77628    
   176.727      16.0604      4.91457    
   179.586      15.6700      5.08598    
   182.491      15.2707      5.26337    
   185.442      14.8614      5.50079    
   188.442      14.4953      5.80892    
   191.489      14.1826      6.13429    
   194.587      13.9044      6.44786    
   197.734      13.6338      6.75972    
   200.932      13.3647      7.08668    
   204.182      13.1055      7.42943    
   207.485      12.8554      7.79000    
   210.840      12.6175      8.16932    
   214.251      12.3921      8.56710    
   217.716      12.1811      8.98426    
   221.237      11.9901      9.42171    
   224.816      11.8202      9.87125    
   228.452      11.6607      10.3273    
   232.147      11.5119      10.8045    
   235.902      11.3790      11.3037    
   239.717      11.2675      11.8260    
   243.595      11.1829      12.3724    
   247.535      11.1481      12.9441    
   251.538      11.1393      13.4744    
   255.607      11.1295      14.0252    
   259.741      11.1382      14.5985    
   263.942      11.1758      15.1953    
   268.211      11.2756      15.8164    
   272.549      11.4408      16.4144    
   276.957      11.6071      16.9342    
   281.437      11.7525      17.4704    
   285.989      11.9056      18.0236    
   290.615      12.0781      18.5943    
   295.315      12.2799      19.1830    
   300.092      12.5409      19.7905    
   304.945      12.8358      20.3246    
   309.878      13.1172      20.8619    
   314.890      13.4081      21.4135    
   319.983      13.7261      21.9796    
   325.158      14.0897      22.5607    
   330.418      14.5435      23.1497    
   335.762      15.0219      23.5754    
   341.192      15.4426      24.0090    
   346.711      15.8571      24.4505    
   352.319      16.2792      24.9002    
   358.017      16.7193      25.3581    
   363.808      17.1989      25.8245    
   369.692      17.7166      26.2369    
   375.672      18.2225      26.6180    
   381.748      18.7144      27.0045    
   387.922      19.2187      27.3968    
   394.197      19.7421      27.7947    
   400.573      20.2933      28.1984    
   407.052      20.9142      28.6079    
   413.635      21.6132      28.9645    
   420.326      22.2959      29.1579    
   427.124      22.9090      29.3526    
   434.032      23.5025      29.5486    
   441.052      24.0902      29.7459    
   448.186      24.6886      29.9446    
   455.435      25.3113      30.1325    
   462.802      25.9345      30.2524    
   470.287      26.5249      30.3622    
   477.894      27.0982      30.4723    
   485.623      27.6670      30.5837    
   493.478      28.2373      30.6957    
   501.459      28.8140      30.8076    
   509.570      29.4095      30.9188    
   517.812      30.0299      31.0181    
   526.187      30.6984      31.0744    
   534.698      31.3615      31.0423    
   543.346      31.9556      30.9666    
   552.134      32.5154      30.8929    
   561.065      33.0585      30.8085    
   570.139      33.5839      30.7141    
   579.361      34.0825      30.5851    
   588.732      34.5372      30.4485    
   598.254      34.9478      30.3071    
   607.930      35.3107      30.1654    
   617.763      35.6012      30.0245    
   627.755      35.7849      29.9009    
   637.908      35.8054      29.9840    
   648.226      35.8843      30.3415    
   658.711      36.2366      30.8886    
   669.365      36.8620      31.4453    
   680.191      37.7399      31.7899    
   691.193      38.6649      31.9466    
   702.372      39.5971      31.9118    
   713.733      40.4693      31.7198    
   725.277      41.1881      31.4210    
   737.008      41.8012      31.1249    
   748.928      42.3386      30.8313    
   761.042      42.8057      30.5443    
   773.351      43.1592      30.3009    
   785.859      43.4750      30.1925    
   798.570      43.8815      30.1950    
   811.486      44.3649      30.1972    
   824.611      44.9071      30.1989    
   837.949      45.5249      30.2004    
   851.502      46.2524      30.0957    
   865.274      46.9821      29.8592    
   879.269      47.6098      29.5075    
   893.491      48.1566      29.1594    
   907.943      48.6578      28.8151    
   922.628      49.1211      28.4746    
   937.551      49.5578      28.1606    
   952.715      49.9893      27.8559    
   968.124      50.4199      27.5597    
   983.783      50.8563      27.2661    
   999.695      51.3089      26.9625    
   1015.86      51.7871      26.6483    
   1032.29      52.2509      26.2064    
   1048.99      52.6318      25.7701    
   1065.96      52.9733      25.3402    
   1083.20      53.2848      24.9165    
   1100.72      53.5706      24.4998    
   1118.52      53.8348      24.0898    
   1136.61      54.0793      23.6859    
   1155.00      54.3055      23.2886    
   1173.68      54.5151      22.8976    
   1192.66      54.7091      22.5126    
   1211.95      54.8880      22.1336    
   1231.55      55.0528      21.7607    
   1251.47      55.2039      21.3936    
   1271.72      55.3419      21.0325    
   1292.29      55.4674      20.6770    
   1313.19      55.5807      20.3271    
   1334.43      55.6819      19.9828    
   1356.01      55.7714      19.6440    
   1377.94      55.8494      19.3102    
   1400.23      55.9158      18.9821    
   1422.88      55.9717      18.6594    
   1445.89      56.0172      18.3412    
   1469.28      56.0524      18.0271    
   1493.04      56.0781      17.7164    
   1517.19      56.0915      17.4018    
   1541.73      56.0865      17.0916    
   1566.67      56.0662      16.7867    
   1592.01      56.0312      16.4868    
   1617.76      55.9809      16.1920    
   1643.92      55.9156      15.9023    
   1670.51      55.8349      15.6177    
   1697.53      55.7384      15.3379    
   1724.99      55.6305      15.0625    
   1752.89      55.5052      14.7797    
   1781.24      55.3505      14.4978    
   1810.05      55.1690      14.2176    
   1839.32      54.9571      13.9426    
   1869.07      54.7146      13.6730    
   1899.30      54.4389      13.4088    
   1930.02      54.1264      13.1494    
   1961.24      53.7719      12.8948    
   1992.96      53.3683      12.6450    
   2025.20      52.9154      12.4076    
   2057.95      52.4022      12.1587    
   2091.24      51.7986      11.9122    
   2125.06      51.0927      11.6688    
   2159.43      50.2560      11.4290    
   2194.36      49.2467      11.1920    
   2229.85      47.9971      10.9583    
   2265.92      46.3885      10.7275    
   2302.57      44.1789      10.5001    
   2339.81      40.7209      10.2756    
   2377.66      32.2804      10.0544    
   2389.20      6.21254      9.98852    
   2389.40      6.21245      27.0870    
   2416.11      35.9075      26.6392    
   2455.19      38.2467      26.0060    
   2485.00      19.5355      25.5397    
   2485.20      19.5618      37.3682    
   2494.90      37.1323      37.1569    
   2535.26      45.3925      36.2991    
   2576.26      49.2219      35.4615    
   2617.93      51.8694      34.6441    
   2660.27      53.8871      33.8466    
   2703.30      55.4864      33.0684    
   2747.03      56.7668      32.3086    
   2791.46      57.7734      31.5684    
   2836.61      58.5050      30.8453    
   2882.49      58.8741      30.1398    
   2929.11      58.4015      29.4506    
   2956.50      50.7116      29.0581    
   2956.70      50.7162      33.6655    
   2976.48      58.8603      33.3492    
   3024.63      61.4660      32.6002    
   3073.55      62.9593      31.8677    
   3123.26      64.0906      31.1518    
   3173.78      65.0109      30.4543    
   3225.11      65.7745      29.7718    
   3277.27      66.3968      29.1070    
   3330.28      66.8588      28.4563    
   3384.15      66.9995      27.8221    
   3415.60      64.4586      27.4628    
   3415.80      64.4611      29.0411    
   3438.88      67.4463      28.7615    
   3494.50      68.5738      28.1061    
   3551.02      69.2768      27.4677    
   3608.46      69.7929      26.8441    
   3666.82      70.0800      26.2344    
   3704.00      68.6135      25.8581    
   3704.20      68.6150      26.8044    
   3726.13      70.4213      26.5959    
   3786.40      71.2870      26.0374    
   3847.64      71.8933      25.4847    
   3909.87      72.4094      24.9406    
   3973.11      72.8708      24.4042    
   4037.38      73.2900      23.8741    
   4102.68      73.6726      23.3509    
   4169.03      74.0245      22.8368    
   4236.46      74.3506      22.3311    
   4304.98      74.6528      21.8323    
   4374.62      74.9313      21.3413    
   4445.37      75.1893      20.8595    
   4517.27      75.4286      20.3855    
   4590.33      75.6503      19.9198    
   4664.58      75.8549      19.4621    
   4740.03      76.0440      19.0128    
   4816.69      76.2183      18.5718    
   4894.60      76.3788      18.1391    
   4973.77      76.5261      17.7143    
   5054.21      76.6609      17.2980    
   5135.96      76.7841      16.8898    
   5219.03      76.8962      16.4898    
   5303.44      76.9979      16.0979    
   5389.22      77.0896      15.7138    
   5476.39      77.1716      15.3376    
   5564.97      77.2448      14.9696    
   5654.98      77.3096      14.6092    
   5746.44      77.3661      14.2564    
   5839.39      77.4149      13.9112    
   5933.83      77.4563      13.5736    
   6029.81      77.4908      13.2434    
   6127.33      77.5186      12.9206    
   6226.44      77.5400      12.6048    
   6327.15      77.5553      12.2964    
   6429.48      77.5650      11.9949    
   6533.48      77.5690      11.7000    
   6639.15      77.5675      11.4121    
   6746.54      77.5610      11.1309    
   6855.65      77.5496      10.8563    
   6966.54      77.5335      10.5881    
   7079.22      77.5128      10.3260    
   7193.72      77.4874      10.0702    
   7310.07      77.4579      9.82072    
   7428.31      77.4243      9.57694    
   7548.45      77.3862      9.33922    
   7670.54      77.3443      9.10735    
   7794.61      77.2986      8.88107    
   7920.68      77.2489      8.66026    
   8048.79      77.1952      8.44462    
   8178.98      77.1374      8.23456    
   8311.26      77.0759      8.02967    
   8445.69      77.0103      7.82977    
   8582.29      76.9405      7.63486    
   8721.11      76.8665      7.44478    
   8862.16      76.7882      7.25975    
   9005.50      76.7055      7.07902    
   9151.16      76.6178      6.90326    
   9299.17      76.5254      6.73167    
   9449.58      76.4274      6.56427    
   9602.42      76.3237      6.40131    
   9757.73      76.2141      6.24246    
   9915.55      76.0991      6.08778    
   10075.9      75.9771      5.93012    
   10238.9      75.8404      5.77671    
   10404.5      75.6919      5.62747    
   10572.8      75.5296      5.48228    
   10743.8      75.3517      5.34106    
   10917.6      75.1552      5.20372    
   11094.2      74.9362      5.07016    
   11273.6      74.6890      4.94029    
   11455.9      74.4056      4.81403    
   11641.2      74.0733      4.69128    
   11829.5      73.6713      4.57196    
   12020.8      73.1616      4.45600    
   12215.3      72.4622      4.34329    
   12412.8      71.3355      4.23377    
   12613.6      68.0599      4.12734    
   12657.4      56.2604      4.10472    
   12657.6      56.2610      10.2136    
   12817.6      70.6878      9.98918    
   13025.0      72.2894      9.70969    
   13235.6      73.0984      9.43803    
   13449.7      73.5876      9.17398    
   13667.2      73.8811      8.91731    
   13888.3      74.0185      8.66783    
   14112.9      73.9944      8.42533    
   14341.2      73.7373      8.18962    
   14573.1      72.8677      7.96050    
   14697.8      65.8290      7.84150    
   14698.0      65.8291      10.9738    
   14808.9      72.8684      10.8572    
   15048.4      73.9928      10.6124    
   15291.8      73.9654      10.3730    
   15346.6      71.1617      10.3204    
   15346.8      71.1623      11.7869    
   15539.1      75.1270      11.5714    
   15790.4      75.9626      11.2996    
   16045.8      76.5449      11.0325    
   16305.4      77.0086      10.7702    
   16569.1      77.3971      10.5127    
   16837.1      77.7320      10.2599    
   17109.4      78.0253      10.0119    
   17386.1      78.2854      9.76875    
   17667.4      78.5178      9.53030    
   17953.1      78.7266      9.29659    
   18243.5      78.9152      9.06757    
   18538.6      79.0859      8.84324    
   18838.4      79.2410      8.62354    
   19143.1      79.3819      8.40844    
   19452.7      79.5102      8.19790    
   19767.4      79.6271      7.99185    
   20087.1      79.7336      7.79027    
   20412.0      79.8305      7.59309    
   20742.1      79.9188      7.40026    
   21077.6      79.9991      7.21172    
   21418.5      80.0720      7.02741    
   21765.0      80.1382      6.84728    
   22117.0      80.1980      6.67126    
   22474.7      80.2520      6.49929    
   22838.2      80.3005      6.33130    
   23207.6      80.3441      6.16723    
   23583.0      80.3829      6.00701    
   23964.4      80.4174      5.85059    
   24352.0      80.4478      5.69788    
   24745.9      80.4744      5.54882    
   25146.2      80.4974      5.40336    
   25552.9      80.5172      5.26141    
   25966.2      80.5339      5.12292    
   26386.1      80.5476      4.98780    
   26812.9      80.5587      4.85602    
   27246.6      80.5672      4.72748    
   27687.3      80.5734      4.60213    
   28135.1      80.5774      4.47990    
   28590.2      80.5793      4.36072    
   29052.6      80.5793      4.24454    
   29522.5      80.5775      4.13129    
   30000.0      80.5740      4.02090    
