 tm, Z=69, (Energy (eV),f1,f2)
   10.0000     -9999.00     0.179178    
   10.1617     -9999.00     0.183562    
   10.3261     -9999.00     0.188053    
   10.4931     -9999.00     0.192655    
   10.6628     -9999.00     0.197369    
   10.8353     -9999.00     0.202198    
   11.0106     -9999.00     0.207145    
   11.1886     -9999.00     0.212214    
   11.3696     -9999.00     0.217406    
   11.5535     -9999.00     0.222726    
   11.7404     -9999.00     0.228032    
   11.9303     -9999.00     0.233362    
   12.1232     -9999.00     0.238816    
   12.3193     -9999.00     0.244398    
   12.5186     -9999.00     0.252465    
   12.7210     -9999.00     0.260938    
   12.9268     -9999.00     0.269695    
   13.1359     -9999.00     0.278956    
   13.3483     -9999.00     0.288750    
   13.5642     -9999.00     0.298888    
   13.7836     -9999.00     0.309381    
   14.0066     -9999.00     0.320243    
   14.2331     -9999.00     0.330785    
   14.4633     -9999.00     0.341628    
   14.6973     -9999.00     0.352827    
   14.9350     -9999.00     0.363367    
   15.1765     -9999.00     0.371920    
   15.4220     -9999.00     0.380674    
   15.6714     -9999.00     0.389635    
   15.9249     -9999.00     0.401388    
   16.1825     -9999.00     0.414494    
   16.4442     -9999.00     0.428028    
   16.7102     -9999.00     0.442004    
   16.9805     -9999.00     0.454906    
   17.2551     -9999.00     0.467522    
   17.5342     -9999.00     0.480488    
   17.8178     -9999.00     0.493146    
   18.1060     -9999.00     0.504313    
   18.3989     -9999.00     0.515734    
   18.6964     -9999.00     0.528157    
   18.9988     -9999.00     0.543557    
   19.3061     -9999.00     0.559407    
   19.6184     -9999.00     0.576219    
   19.9357     -9999.00     0.596380    
   20.2582     -9999.00     0.617248    
   20.5858     -9999.00     0.634307    
   20.9188     -9999.00     0.649729    
   21.2571     -9999.00     0.665525    
   21.6009     -9999.00     0.681582    
   21.9503     -9999.00     0.697862    
   22.3053     -9999.00     0.714532    
   22.6661     -9999.00     0.731985    
   23.0327     -9999.00     0.773361    
   23.4053     -9999.00     0.817076    
   23.7838     -9999.00     0.877890    
   24.1685     -9999.00     0.973146    
   24.5594     -9999.00      1.07964    
   24.9566     -9999.00      1.21408    
   25.3603     -9999.00      1.36749    
   25.7705     -9999.00      1.71606    
   26.1873     -9999.00      2.52512    
   26.6109     -9999.00      2.89514    
   27.0413     -9999.00      3.63391    
   27.4786     -9999.00      4.25061    
   27.9231     -9999.00      4.80946    
   28.3747     -9999.00      5.47785    
   28.8337     -9999.00      6.19755    
   29.3000     -1.83272      6.87100    
   29.7739     -1.59375      7.58570    
   30.2555     -1.18278      8.34892    
   30.7449    -0.632699      8.77946    
   31.2421    -0.176010      9.16803    
   31.7475     0.264100      9.49109    
   32.2609     0.701096      9.82237    
   32.7827      1.22228      10.0759    
   33.3130      1.65537      10.2386    
   33.8518      2.05797      10.4039    
   34.3993      2.45219      10.5534    
   34.9557      2.84079      10.7009    
   35.5211      3.25342      10.8505    
   36.0956      3.68788      10.9113    
   36.6794      4.06430      10.9433    
   37.2727      4.41214      10.9805    
   37.8755      4.76201      11.0320    
   38.4882      5.14352      11.0836    
   39.1107      5.61211      11.0591    
   39.7432      5.97827      10.9286    
   40.3861      6.28050      10.7983    
   41.0393      6.54689      10.6669    
   41.7031      6.78875      10.5366    
   42.3776      6.98948      10.3804    
   43.0630      7.12303      10.2265    
   43.7595      7.23244      10.1678    
   44.4673      7.36725      10.1178    
   45.1865      7.50368      10.0680    
   45.9174      7.62885      10.0185    
   46.6600      7.75385      10.0042    
   47.4147      7.89935      9.99430    
   48.1816      8.06663      9.98443    
   48.9609      8.28215      9.93439    
   49.7528      8.44301      9.83561    
   50.5576      8.56713      9.73780    
   51.3753      8.65773      9.64968    
   52.2062      8.74739      9.59672    
   53.0506      8.84136      9.54405    
   53.9087      8.93477      9.49166    
   54.7806      9.02552      9.43641    
   55.6667      9.10763      9.37913    
   56.5670      9.18133      9.32220    
   57.4820      9.24507      9.26561    
   58.4117      9.29896      9.21499    
   59.3564      9.34608      9.16647    
   60.3165      9.37880      9.11820    
   61.2921      9.39554      9.09211    
   62.2834      9.41863      9.07559    
   63.2908      9.43804      9.05911    
   64.3145      9.43618      9.04593    
   65.3547      9.43900      9.08196    
   66.4118      9.45926      9.11814    
   67.4859      9.48843      9.15447    
   68.5775      9.52063      9.19135    
   69.6867      9.55534      9.22974    
   70.8138      9.59099      9.26830    
   71.9591      9.62532      9.30701    
   73.1230      9.65283      9.34589    
   74.3057      9.67811      9.40529    
   75.5076      9.71422      9.46895    
   76.7289      9.75728      9.53304    
   77.9699      9.80552      9.59756    
   79.2310      9.85852      9.65567    
   80.5125      9.90645      9.71026    
   81.8147      9.94973      9.76516    
   83.1380      9.98655      9.82038    
   84.4827      10.0048      9.88424    
   85.8491      10.0338      9.97333    
   87.2377      10.0731      10.0632    
   88.6487      10.1146      10.1539    
   90.0825      10.1497      10.2454    
   91.5395      10.1822      10.3684    
   93.0201      10.2482      10.5080    
   94.5246      10.3566      10.6373    
   96.0535      10.4566      10.7170    
   97.6071      10.5431      10.7973    
   99.1858      10.6226      10.8782    
   100.790      10.6984      10.9598    
   102.420      10.7708      11.0419    
   104.077      10.8395      11.1247    
   105.760      10.9029      11.2080    
   107.471      10.9577      11.2920    
   109.209      10.9939      11.3767    
   110.975      10.9653      11.5042    
   112.770      11.0177      11.7511    
   114.594      11.1815      12.0033    
   116.448      11.4096      12.1045    
   118.331      11.5757      12.1624    
   120.245      11.6972      12.2269    
   122.190      11.8114      12.2982    
   124.166      11.9192      12.3699    
   126.175      12.0152      12.4420    
   128.215      12.1006      12.5419    
   130.289      12.2141      12.6580    
   132.397      12.3833      12.7751    
   134.538      12.5585      12.7857    
   136.714      12.6685      12.7713    
   138.925      12.7218      12.7568    
   141.172      12.6274      12.9099    
   143.456      12.8543      13.0743    
   145.776      13.0431      13.0593    
   148.134      13.2282      13.0442    
   150.530      13.3649      12.8550    
   152.964      13.4070      12.6556    
   155.439      13.4969      12.4593    
   157.953      13.4463      11.8315    
   160.507      12.8937      11.0929    
   163.103      11.9686      10.4729    
   165.742      10.3912      9.56704    
   168.422      7.25855      8.83252    
   171.146     -2.39426      12.5076    
   173.915     0.125351      31.9669    
   176.727      11.1046      29.0638    
   179.586      16.7436      25.5757    
   182.491      18.1993      22.6301    
   185.442      18.6800      20.5774    
   188.442      18.2749      19.3155    
   191.489      18.0141      18.8170    
   194.587      18.0556      18.5739    
   197.734      18.1419      18.3337    
   200.932      18.1449      18.0964    
   204.182      18.1549      18.0687    
   207.485      18.1959      18.0902    
   210.840      18.3088      18.1670    
   214.251      18.4722      18.2445    
   217.716      18.6575      18.3236    
   221.237      18.8606      18.4046    
   224.816      19.0780      18.4865    
   228.452      19.3082      18.5687    
   232.147      19.5532      18.6510    
   235.902      19.8099      18.7246    
   239.717      20.0799      18.7874    
   243.595      20.3438      18.8366    
   247.535      20.6065      18.8860    
   251.538      20.8726      18.9356    
   255.607      21.1475      18.9855    
   259.741      21.4357      19.0266    
   263.942      21.7402      19.0426    
   268.211      22.0199      19.0303    
   272.549      22.2844      19.0185    
   276.957      22.5413      19.0066    
   281.437      22.7950      18.9947    
   285.989      23.0432      18.9735    
   290.615      23.2841      18.9492    
   295.315      23.5145      18.9216    
   300.092      23.7357      18.8932    
   304.945      23.9476      18.8650    
   309.878      24.1512      18.8375    
   314.890      24.3454      18.8099    
   319.983      24.5283      18.7822    
   325.158      24.6965      18.7545    
   330.418      24.8422      18.7263    
   335.762      24.9104      18.7397    
   341.192      25.0249      18.8387    
   346.711      25.1894      18.9393    
   352.319      25.3723      19.0405    
   358.017      25.5698      19.1419    
   363.808      25.7798      19.2433    
   369.692      26.0021      19.3447    
   375.672      26.2352      19.4453    
   381.748      26.4795      19.5445    
   387.922      26.7378      19.6400    
   394.197      26.9998      19.7273    
   400.573      27.2677      19.8152    
   407.052      27.5442      19.9036    
   413.635      27.8340      19.9934    
   420.326      28.1393      20.0777    
   427.124      28.4736      20.1532    
   434.032      28.7997      20.1898    
   441.052      29.1194      20.2266    
   448.186      29.4413      20.2637    
   455.435      29.7757      20.3014    
   462.802      30.1234      20.3172    
   470.287      30.4716      20.3188    
   477.894      30.8107      20.3085    
   485.623      31.1492      20.2983    
   493.478      31.4984      20.2860    
   501.459      31.8567      20.2652    
   509.570      32.2248      20.2274    
   517.812      32.6084      20.1740    
   526.187      32.9995      20.0933    
   534.698      33.3853      19.9619    
   543.346      33.7319      19.8061    
   552.134      34.0579      19.6517    
   561.065      34.3706      19.4860    
   570.139      34.6663      19.3153    
   579.361      34.9442      19.1416    
   588.732      35.2090      18.9688    
   598.254      35.4628      18.7970    
   607.930      35.7081      18.6268    
   617.763      35.9477      18.4582    
   627.755      36.1882      18.2898    
   637.908      36.4281      18.1083    
   648.226      36.6585      17.9069    
   658.711      36.8594      17.6937    
   669.365      37.0310      17.4829    
   680.191      37.1786      17.3031    
   691.193      37.3345      17.1468    
   702.372      37.5188      16.9948    
   713.733      37.7109      16.8118    
   725.277      37.8782      16.6085    
   737.008      38.0273      16.4073    
   748.928      38.1645      16.2085    
   761.042      38.2934      16.0118    
   773.351      38.4172      15.8143    
   785.859      38.5336      15.6087    
   798.570      38.6319      15.3973    
   811.486      38.7151      15.1887    
   824.611      38.7857      14.9827    
   837.949      38.8452      14.7795    
   851.502      38.8938      14.5775    
   865.274      38.9310      14.3770    
   879.269      38.9560      14.1781    
   893.491      38.9690      13.9817    
   907.943      38.9707      13.7878    
   922.628      38.9621      13.5966    
   937.551      38.9410      13.4036    
   952.715      38.9061      13.2123    
   968.124      38.8571      13.0228    
   983.783      38.7945      12.8354    
   999.695      38.7193      12.6484    
   1015.86      38.6340      12.4619    
   1032.29      38.5258      12.2584    
   1048.99      38.3905      12.0560    
   1065.96      38.2265      11.8547    
   1083.20      38.0344      11.6566    
   1100.72      37.8130      11.4615    
   1118.52      37.5602      11.2694    
   1136.61      37.2723      11.0800    
   1155.00      36.9458      10.8937    
   1173.68      36.5761      10.7106    
   1192.66      36.1568      10.5299    
   1211.95      35.6800      10.3522    
   1231.55      35.1361      10.1773    
   1251.47      34.5117      10.0049    
   1271.72      33.7895      9.83530    
   1292.29      32.9456      9.66836    
   1313.19      31.9460      9.50400    
   1334.43      30.7402      9.34231    
   1356.01      29.2490      9.18320    
   1377.94      27.3369      9.02628    
   1400.23      24.7448      8.87195    
   1422.88      20.8755      8.72024    
   1445.89      13.7238      8.57096    
   1467.60     -44.2153      8.43460    
   1467.80     -44.1931      42.8257    
   1469.28     -13.8820      42.7609    
   1493.04      17.4885      41.7396    
   1517.19      25.4206      40.7427    
   1541.73      30.2635      39.7697    
   1566.67      33.7576      38.8199    
   1592.01      36.4746      37.8923    
   1617.76      38.6758      36.9864    
   1643.92      40.5020      36.1017    
   1670.51      42.0367      35.2376    
   1697.53      43.3311      34.3941    
   1724.99      44.4168      33.5707    
   1752.89      45.3076      32.7667    
   1781.24      45.9987      31.9821    
   1810.05      46.4533      31.2164    
   1839.32      46.5451      30.4691    
   1869.07      45.6404      29.7395    
   1884.40      37.8613      29.3749    
   1884.60      37.8683      34.4908    
   1899.30      46.4076      34.0785    
   1930.02      48.9110      33.2426    
   1961.24      50.3126      32.4274    
   1992.96      51.3072      31.6324    
   2025.20      52.0236      30.8646    
   2057.95      52.4012      30.1089    
   2089.70      49.2357      29.4051    
   2089.90      49.2403      31.5216    
   2091.24      51.0690      31.4912    
   2125.06      53.8878      30.7384    
   2159.43      54.9073      30.0041    
   2194.36      55.6496      29.2878    
   2229.85      56.2642      28.5900    
   2265.92      56.2643      27.9089    
   2302.57      56.6238      28.3473    
   2306.70      56.7380      28.3967    
   2306.90      56.7542      28.4207    
   2339.81      57.8031      27.8706    
   2377.66      58.5099      27.2604    
   2416.11      59.0979      26.6619    
   2455.19      59.6158      26.0750    
   2494.90      60.0814      25.4984    
   2535.26      60.5051      24.9339    
   2576.26      60.8941      24.3806    
   2617.93      61.2520      23.8378    
   2660.27      61.5830      23.3065    
   2703.30      61.8888      22.7846    
   2747.03      62.1716      22.2745    
   2791.46      62.4341      21.7748    
   2836.61      62.6779      21.2854    
   2882.49      62.9040      20.8060    
   2929.11      63.1140      20.3364    
   2976.48      63.3084      19.8763    
   3024.63      63.4880      19.4261    
   3073.55      63.6546      18.9860    
   3123.26      63.8095      18.5549    
   3173.78      63.9523      18.1320    
   3225.11      64.0832      17.7186    
   3277.27      64.2041      17.3143    
   3330.28      64.3153      16.9181    
   3384.15      64.4172      16.5306    
   3438.88      64.5096      16.1507    
   3494.50      64.5937      15.7799    
   3551.02      64.6706      15.4167    
   3608.46      64.7392      15.0605    
   3666.82      64.8008      14.7131    
   3726.13      64.8558      14.3723    
   3786.40      64.9037      14.0390    
   3847.64      64.9454      13.7130    
   3909.87      64.9812      13.3940    
   3973.11      65.0113      13.0819    
   4037.38      65.0358      12.7766    
   4102.68      65.0550      12.4779    
   4169.03      65.0691      12.1856    
   4236.46      65.0783      11.8999    
   4304.98      65.0828      11.6202    
   4374.62      65.0827      11.3469    
   4445.37      65.0783      11.0793    
   4517.27      65.0695      10.8176    
   4590.33      65.0565      10.5619    
   4664.58      65.0395      10.3118    
   4740.03      65.0185      10.0671    
   4816.69      64.9935      9.82784    
   4894.60      64.9648      9.59393    
   4973.77      64.9324      9.36514    
   5054.21      64.8961      9.14144    
   5135.96      64.8560      8.92270    
   5219.03      64.8121      8.70875    
   5303.44      64.7645      8.49979    
   5389.22      64.7131      8.29526    
   5476.39      64.6578      8.09544    
   5564.97      64.5986      7.90005    
   5654.98      64.5352      7.70899    
   5746.44      64.4677      7.52232    
   5839.39      64.3958      7.33972    
   5933.83      64.3193      7.16126    
   6029.81      64.2380      6.98675    
   6127.33      64.1514      6.81608    
   6226.44      64.0594      6.64936    
   6327.15      63.9615      6.48626    
   6429.48      63.8571      6.32692    
   6533.48      63.7457      6.17090    
   6639.15      63.6264      6.01861    
   6746.54      63.4986      5.86965    
   6855.65      63.3610      5.72401    
   6966.54      63.2124      5.58163    
   7079.22      63.0512      5.44249    
   7193.72      62.8754      5.30649    
   7310.07      62.6824      5.17342    
   7428.31      62.4687      5.04336    
   7548.45      62.2300      4.91617    
   7670.54      61.9600      4.79183    
   7794.61      61.6498      4.67022    
   7920.68      61.2862      4.55132    
   8048.79      60.8480      4.43505    
   8178.98      60.2973      4.32141    
   8311.26      59.5582      4.21043    
   8445.69      58.4313      4.10195    
   8582.29      55.9647      3.99560    
   8647.90      41.5787      3.94610    
   8648.10      41.5800      10.9583    
   8721.11      56.3180      10.7878    
   8862.16      58.6756      10.4698    
   9005.50      59.6751      10.1611    
   9151.16      60.1876      9.86135    
   9299.17      60.3598      9.57055    
   9449.58      60.1034      9.28846    
   9602.42      57.7059      9.01460    
   9616.80      52.0592      8.98948    
   9617.00      52.0600      12.5751    
   9757.73      60.6046      12.2326    
   9915.55      61.5434      11.8652    
   10075.9      61.5694      11.5113    
   10115.6      58.9955      11.4263    
   10115.8      58.9961      12.8521    
   10238.9      62.6389      12.6349    
   10404.5      63.5029      12.3524    
   10572.8      64.1240      12.0738    
   10743.8      64.6296      11.7992    
   10917.6      65.0605      11.5285    
   11094.2      65.4367      11.2621    
   11273.6      65.7699      10.9998    
   11455.9      66.0681      10.7418    
   11641.2      66.3368      10.4881    
   11829.5      66.5801      10.2387    
   12020.8      66.8013      9.99374    
   12215.3      67.0030      9.75315    
   12412.8      67.1873      9.51697    
   12613.6      67.3560      9.28521    
   12817.6      67.5105      9.05787    
   13025.0      67.6522      8.83492    
   13235.6      67.7820      8.61636    
   13449.7      67.9011      8.40218    
   13667.2      68.0103      8.19233    
   13888.3      68.1103      7.98681    
   14112.9      68.2018      7.78557    
   14341.2      68.2854      7.58858    
   14573.1      68.3617      7.39579    
   14808.9      68.4313      7.20717    
   15048.4      68.4944      7.02267    
   15291.8      68.5517      6.84224    
   15539.1      68.6035      6.66583    
   15790.4      68.6500      6.49338    
   16045.8      68.6918      6.32485    
   16305.4      68.7291      6.16017    
   16569.1      68.7621      5.99929    
   16837.1      68.7911      5.84215    
   17109.4      68.8165      5.68870    
   17386.1      68.8383      5.53886    
   17667.4      68.8569      5.39259    
   17953.1      68.8725      5.24981    
   18243.5      68.8851      5.11047    
   18538.6      68.8951      4.97451    
   18838.4      68.9026      4.84185    
   19143.1      68.9077      4.71245    
   19452.7      68.9106      4.58624    
   19767.4      68.9114      4.46315    
   20087.1      68.9102      4.34313    
   20412.0      68.9073      4.22611    
   20742.1      68.9026      4.11203    
   21077.6      68.8964      4.00082    
   21418.5      68.8886      3.89245    
   21765.0      68.8794      3.78682    
   22117.0      68.8690      3.68391    
   22474.7      68.8573      3.58363    
   22838.2      68.8444      3.48594    
   23207.6      68.8305      3.39077    
   23583.0      68.8156      3.29807    
   23964.4      68.7997      3.20779    
   24352.0      68.7830      3.11987    
   24745.9      68.7654      3.03425    
   25146.2      68.7471      2.95088    
   25552.9      68.7281      2.86972    
   25966.2      68.7084      2.79070    
   26386.1      68.6881      2.71377    
   26812.9      68.6672      2.63889    
   27246.6      68.6457      2.56601    
   27687.3      68.6237      2.49507    
   28135.1      68.6012      2.42604    
   28590.2      68.5783      2.35886    
   29052.6      68.5549      2.29348    
   29522.5      68.5311      2.22987    
   30000.0      68.5069      2.16799    
