 u , Z=92, (Energy (eV),f1,f2)
   10.0000     -9999.00      1.62700    
   10.1617     -9999.00      1.61282    
   10.3261     -9999.00      1.59877    
   10.4931     -9999.00      1.58416    
   10.6628     -9999.00      1.56547    
   10.8353     -9999.00      1.54700    
   11.0106     -9999.00      1.52874    
   11.1886     -9999.00      1.51070    
   11.3696     -9999.00      1.49287    
   11.5535     -9999.00      1.47526    
   11.7404     -9999.00      1.45876    
   11.9303     -9999.00      1.44394    
   12.1232     -9999.00      1.42927    
   12.3193     -9999.00      1.41475    
   12.5186     -9999.00      1.40038    
   12.7210     -9999.00      1.38615    
   12.9268     -9999.00      1.37207    
   13.1359     -9999.00      1.35814    
   13.3483     -9999.00      1.34434    
   13.5642     -9999.00      1.33011    
   13.7836     -9999.00      1.31551    
   14.0066     -9999.00      1.30107    
   14.2331     -9999.00      1.28679    
   14.4633     -9999.00      1.27267    
   14.6973     -9999.00      1.25871    
   14.9350     -9999.00      1.24489    
   15.1765     -9999.00      1.23229    
   15.4220     -9999.00      1.22013    
   15.6714     -9999.00      1.20809    
   15.9249     -9999.00      1.19617    
   16.1825     -9999.00      1.18436    
   16.4442     -9999.00      1.17567    
   16.7102     -9999.00      1.17857    
   16.9805     -9999.00      1.18147    
   17.2551     -9999.00      1.19738    
   17.5342     -9999.00      1.22734    
   17.8178     -9999.00      1.26351    
   18.1060     -9999.00      1.38802    
   18.3989     -9999.00      1.54488    
   18.6964     -9999.00      1.79483    
   18.9988     -9999.00      2.45978    
   19.3061     -9999.00      3.52381    
   19.6184     -9999.00      5.04811    
   19.9357     -9999.00      6.00990    
   20.2582     -9999.00      6.93785    
   20.5858     -9999.00      7.41969    
   20.9188     -9999.00      7.93500    
   21.2571     -9999.00      8.38150    
   21.6009     -9999.00      8.80602    
   21.9503     -9999.00      9.25204    
   22.3053     -9999.00      9.66152    
   22.6661     -9999.00      9.97607    
   23.0327     -9999.00      10.3009    
   23.4053     -9999.00      10.6362    
   23.7838     -9999.00      10.9825    
   24.1685     -9999.00      11.3401    
   24.5594     -9999.00      11.6286    
   24.9566     -9999.00      11.8448    
   25.3603     -9999.00      12.0651    
   25.7705     -9999.00      12.2894    
   26.1873     -9999.00      12.5180    
   26.6109     -9999.00      12.7507    
   27.0413     -9999.00      12.9878    
   27.4786     -9999.00      13.1712    
   27.9231     -9999.00      13.2157    
   28.3747     -9999.00      13.2603    
   28.8337     -9999.00      13.3051    
   29.3000      10.5750      13.3500    
   29.7739      10.8811      13.3951    
   30.2555      11.1801      13.4403    
   30.7449      11.4705      13.4761    
   31.2421      11.7502      13.5120    
   31.7475      12.0226      13.5479    
   32.2609      12.2894      13.5840    
   32.7827      12.5520      13.6201    
   33.3130      12.8112      13.6564    
   33.8518      13.0681      13.6927    
   34.3993      13.3234      13.7291    
   34.9557      13.5780      13.7654    
   35.5211      13.8325      13.8018    
   36.0956      14.0879      13.8383    
   36.6794      14.3452      13.8749    
   37.2727      14.6054      13.9116    
   37.8755      14.8699      13.9483    
   38.4882      15.1405      13.9852    
   39.1107      15.4197      14.0222    
   39.7432      15.7113      14.0592    
   40.3861      16.0222      14.0964    
   41.0393      16.3798      14.1337    
   41.7031      16.7949      14.0635    
   42.3776      17.1277      13.9402    
   43.0630      17.4186      13.8180    
   43.7595      17.6901      13.6969    
   44.4673      17.9475      13.5768    
   45.1865      18.1950      13.4578    
   45.9174      18.4361      13.3398    
   46.6600      18.6771      13.2229    
   47.4147      18.9311      13.1070    
   48.1816      19.1850      12.9381    
   48.9609      19.4019      12.7600    
   49.7528      19.5991      12.5844    
   50.5576      19.7829      12.4111    
   51.3753      19.9574      12.2402    
   52.2062      20.1258      12.0717    
   53.0506      20.2924      11.9055    
   53.9087      20.4646      11.7416    
   54.7806      20.6678      11.5800    
   55.6667      20.8889      11.3130    
   56.5670      21.0308      11.0195    
   57.4820      21.1241      10.7337    
   58.4117      21.1890      10.4552    
   59.3564      21.2305      10.1841    
   60.3165      21.2522      9.91987    
   61.2921      21.2570      9.66255    
   62.2834      21.2480      9.41192    
   63.2908      21.2285      9.16778    
   64.3145      21.2097      8.92997    
   65.3547      21.2274      8.66886    
   66.4118      21.1810      8.33553    
   67.4859      21.0749      8.01500    
   68.5775      20.9334      7.70682    
   69.6867      20.7635      7.41047    
   70.8138      20.5729      7.12553    
   71.9591      20.3794      6.85153    
   73.1230      20.1610      6.52316    
   74.3057      19.8768      6.19680    
   75.5076      19.5503      5.88679    
   76.7289      19.1954      5.59228    
   77.9699      18.8490      5.31250    
   79.2310      18.5765      4.87428    
   80.5125      18.0441      4.32769    
   81.8147      17.3440      3.84240    
   83.1380      16.5116      3.35902    
   84.4827      15.5172      2.92900    
   85.8491      14.3428      2.57831    
   87.2377      13.0798      2.36876    
   88.6487      11.6824      2.17626    
   90.0825      10.0670      2.05790    
   91.5395      8.21023      1.99914    
   93.0201      5.95259      1.99515    
   94.5246      2.91261      2.12790    
   96.0535     -1.97819      3.51635    
   97.6071     -7.08175      8.09234    
   99.1858     -9.58304      18.6229    
   100.790      3.07762      24.6815    
   102.420      6.43030      18.4389    
   104.077      4.15900      13.7751    
   105.760     0.301717      12.8448    
   107.471     -4.57170      12.3641    
   109.209     -10.6639      12.3392    
   110.975     -22.3172      12.5592    
   112.770     -67.1152      85.1494    
   114.594     -32.1427      94.4911    
   116.448      3.38118      95.9686    
   118.331      28.6729      87.0976    
   120.245      38.7668      73.8404    
   122.190      44.5490      65.7776    
   124.166      49.2497      58.5187    
   126.175      52.1489      51.3202    
   128.215      53.5133      45.0073    
   130.289      53.8094      39.4711    
   132.397      53.1595      34.6158    
   134.538      50.9933      31.1950    
   136.714      49.9722      29.6174    
   138.925      49.4985      28.1196    
   141.172      49.2360      26.6975    
   143.456      49.0708      25.3473    
   145.776      48.9555      24.0654    
   148.134      48.8683      22.8484    
   150.530      48.8065      21.6929    
   152.964      48.8111      20.5527    
   155.439      48.7305      19.3633    
   157.953      48.5873      18.2427    
   160.507      48.4057      17.1870    
   163.103      48.1986      16.1923    
   165.742      47.9748      15.2552    
   168.422      47.7446      14.3724    
   171.146      47.5511      13.5406    
   173.915      47.3422      12.6314    
   176.727      47.0332      11.7469    
   179.586      46.6686      10.9244    
   182.491      46.2678      10.1595    
   185.442      45.8378      9.44810    
   188.442      45.3813      8.78653    
   191.489      44.8938      8.17131    
   194.587      44.3193      7.59914    
   197.734      43.7533      7.24255    
   200.932      43.2896      6.93603    
   204.182      42.8744      6.64249    
   207.485      42.4876      6.36138    
   210.840      42.1198      6.09215    
   214.251      41.7657      5.83432    
   217.716      41.4211      5.58740    
   221.237      41.0829      5.35094    
   224.816      40.7464      5.12448    
   228.452      40.4126      4.91606    
   232.147      40.0836      4.71802    
   235.902      39.7545      4.52796    
   239.717      39.4139      4.34556    
   243.595      39.0661      4.20612    
   247.535      38.7391      4.08651    
   251.538      38.4263      3.97030    
   255.607      38.1152      3.85740    
   259.741      37.7944      3.74770    
   263.942      37.4559      3.66731    
   268.211      37.1436      3.61890    
   272.549      36.8456      3.57113    
   276.957      36.5521      3.52400    
   281.437      36.2571      3.47749    
   285.989      35.9384      3.43159    
   290.615      35.6221      3.43678    
   295.315      35.3296      3.44981    
   300.092      35.0468      3.46290    
   304.945      34.7674      3.47602    
   309.878      34.4870      3.48920    
   314.890      34.1991      3.50243    
   319.983      33.8928      3.52807    
   325.158      33.5969      3.57732    
   330.418      33.3056      3.62725    
   335.762      33.0118      3.67788    
   341.192      32.7110      3.72922    
   346.711      32.3981      3.78127    
   352.319      32.0617      3.83405    
   358.017      31.6867      3.92494    
   363.808      31.3262      4.05508    
   369.692      30.9779      4.18955    
   375.672      30.6235      4.32847    
   381.748      30.2556      4.47199    
   387.922      29.8610      4.62028    
   394.197      29.4184      4.81395    
   400.573      28.9869      5.05973    
   407.052      28.5632      5.31806    
   413.635      28.1237      5.58958    
   420.326      27.6060      5.87496    
   427.124      27.0756      6.31162    
   434.032      26.6000      6.81207    
   441.052      26.1586      7.35218    
   448.186      25.7436      7.93513    
   455.435      25.3591      8.56083    
   462.802      25.0013      9.23032    
   470.287      24.6829      9.95215    
   477.894      24.4242      10.7076    
   485.623      24.1980      11.4899    
   493.478      24.0144      12.3293    
   501.459      23.9346      13.2301    
   509.570      23.9381      14.0536    
   517.812      23.9468      14.8772    
   526.187      23.9723      15.7491    
   534.698      24.0615      16.6721    
   543.346      24.2824      17.6206    
   552.134      24.5668      18.5457    
   561.065      24.9863      19.5194    
   570.139      25.6014      20.3875    
   579.361      26.2416      21.1154    
   588.732      27.1399      21.8465    
   598.254      27.9274      21.9640    
   607.930      28.5050      22.0820    
   617.763      29.1067      22.1429    
   627.755      29.4339      21.9385    
   637.908      29.3660      21.8888    
   648.226      29.2264      22.0330    
   658.711      29.0216      22.3228    
   669.365      28.8388      22.7453    
   680.191      28.5719      23.1759    
   691.193      28.1800      23.8702    
   702.372      27.9802      24.8543    
   713.733      27.9219      25.8819    
   725.277      27.9828      26.9992    
   737.008      28.1625      28.1647    
   748.928      28.4885      29.3772    
   761.042      28.9164      30.5788    
   773.351      29.4417      31.8296    
   785.859      30.1187      33.1315    
   798.570      30.9956      34.3945    
   811.486      31.9794      35.6068    
   824.611      33.1083      36.8619    
   837.949      34.6532      38.1612    
   851.502      36.2827      38.7940    
   865.274      37.8031      39.3702    
   879.269      39.4166      39.9549    
   893.491      41.1724      40.2501    
   907.943      42.7286      40.2453    
   922.628      44.1879      40.2405    
   937.551      45.5672      40.0917    
   952.715      46.8148      39.9107    
   968.124      47.8824      39.9001    
   983.783      49.2008      40.1576    
   999.695      51.0493      40.4167    
   1015.86      54.9983      40.6774    
   1032.29      54.7330      36.0780    
   1048.99      53.7840      35.8366    
   1065.96      54.3136      35.7773    
   1083.20      54.9350      35.4768    
   1100.72      55.5198      35.1633    
   1118.52      56.1044      34.8526    
   1136.61      56.6867      34.5446    
   1155.00      57.2650      34.2394    
   1173.68      57.8384      33.9369    
   1192.66      58.4068      33.6370    
   1211.95      58.9713      33.3398    
   1231.55      59.5334      33.0451    
   1251.47      60.0959      32.7532    
   1271.72      60.6636      32.4637    
   1292.29      61.2463      32.1769    
   1313.19      61.8897      31.8925    
   1334.43      62.5241      31.4589    
   1356.01      63.0875      30.9981    
   1377.94      63.5902      30.5440    
   1400.23      64.0610      30.0966    
   1422.88      64.5058      29.6558    
   1445.89      64.9289      29.2215    
   1469.28      65.3334      28.7935    
   1493.04      65.7218      28.3717    
   1517.19      66.0966      27.9562    
   1541.73      66.4601      27.5467    
   1566.67      66.8149      27.1432    
   1592.01      67.1647      26.7456    
   1617.76      67.5163      26.3539    
   1643.92      67.8971      25.9679    
   1670.51      68.2738      25.4962    
   1697.53      68.5971      25.0005    
   1724.99      68.8692      24.5143    
   1752.89      69.1134      24.0376    
   1781.24      69.3338      23.5702    
   1810.05      69.5334      23.1119    
   1839.32      69.7143      22.6625    
   1869.07      69.8781      22.2218    
   1899.30      70.0260      21.7897    
   1930.02      70.1590      21.3660    
   1961.24      70.2779      20.9505    
   1992.96      70.3834      20.5431    
   2025.20      70.4762      20.1437    
   2057.95      70.5567      19.7520    
   2091.24      70.6254      19.3679    
   2125.06      70.6828      18.9912    
   2159.43      70.7293      18.6220    
   2194.36      70.7657      18.2598    
   2229.85      70.7930      17.9048    
   2265.92      70.8150      17.5566    
   2302.57      70.8319      17.2011    
   2339.81      70.8286      16.8393    
   2377.66      70.8012      16.4851    
   2416.11      70.7570      16.1383    
   2455.19      70.6962      15.7989    
   2494.90      70.6191      15.4666    
   2535.26      70.5254      15.1412    
   2576.26      70.4146      14.8227    
   2617.93      70.2859      14.5109    
   2660.27      70.1383      14.2057    
   2703.30      69.9706      13.9069    
   2747.03      69.7811      13.6144    
   2791.46      69.5678      13.3280    
   2836.61      69.3282      13.0476    
   2882.49      69.0592      12.7732    
   2929.11      68.7569      12.5045    
   2976.48      68.4130      12.2415    
   3024.63      68.0257      11.9906    
   3073.55      67.5920      11.7473    
   3123.26      67.0988      11.5088    
   3173.78      66.5456      11.2752    
   3225.11      65.9045      11.0188    
   3277.27      65.0956      10.7185    
   3330.28      64.0540      10.4264    
   3384.15      62.6818      10.1423    
   3438.88      60.7377      9.86597    
   3494.50      57.4574      9.59711    
   3551.02      36.8481      9.33562    
   3551.60      27.9841      9.33299    
   3551.80      27.9911      23.9176    
   3608.46      57.0764      22.8503    
   3666.82      58.7767      21.8168    
   3726.13      51.9404      21.1209    
   3727.50      45.8434      21.1052    
   3727.70      45.8461      28.2603    
   3786.40      61.4517      27.8547    
   3847.64      63.9774      27.4443    
   3909.87      65.5811      27.0398    
   3973.11      66.7483      26.7485    
   4037.38      67.7374      26.5462    
   4102.68      68.6142      26.3294    
   4169.03      69.2506      25.9461    
   4236.46      69.8091      25.5685    
   4303.30      62.6813      25.2053    
   4303.50      62.6905      29.1726    
   4304.98      65.8913      29.1600    
   4374.62      71.3773      28.5770    
   4445.37      72.9924      28.0057    
   4517.27      74.1697      27.4457    
   4590.33      75.1327      26.8669    
   4664.58      75.9092      26.2629    
   4740.03      76.4810      25.7150    
   4816.69      76.9832      25.3035    
   4894.60      77.4932      24.8986    
   4973.77      77.9429      24.5001    
   5054.21      78.3129      24.1081    
   5135.96      78.5724      23.7223    
   5182.10      76.8897      23.5099    
   5182.30      76.8951      24.6131    
   5219.03      78.9443      24.4161    
   5303.44      79.8351      23.9744    
   5389.22      80.4626      23.5407    
   5476.39      80.9998      23.1148    
   5564.97      81.4878      22.6966    
   5654.98      81.9557      22.2861    
   5746.44      82.4005      21.8283    
   5839.39      82.7861      21.3608    
   5933.83      83.1227      20.9032    
   6029.81      83.4256      20.4555    
   6127.33      83.6978      20.0174    
   6226.44      83.9417      19.5887    
   6327.15      84.1366      19.1691    
   6429.48      84.3059      18.8064    
   6533.48      84.4947      18.4729    
   6639.15      84.6871      18.1453    
   6746.54      84.8782      17.8236    
   6855.65      85.0669      17.5075    
   6966.54      85.2536      17.1971    
   7079.22      85.4394      16.8921    
   7193.72      85.6268      16.5925    
   7310.07      85.8185      16.2983    
   7428.31      86.0525      16.0093    
   7548.45      86.3050      15.6522    
   7670.54      86.4946      15.2272    
   7794.61      86.6260      14.8138    
   7920.68      86.7211      14.4117    
   8048.79      86.7843      14.0204    
   8178.98      86.7944      13.6433    
   8311.26      86.7896      13.3491    
   8445.69      86.8225      13.0613    
   8582.29      86.8541      12.7797    
   8721.11      86.9066      12.5041    
   8862.16      86.9603      12.1882    
   9005.50      86.9525      11.8288    
   9151.16      86.8622      11.4799    
   9299.17      86.6684      11.1965    
   9449.58      86.2926      10.9951    
   9602.42      86.2961      11.5634    
   9757.73      86.8907      11.3972    
   9915.55      87.0112      11.1148    
   10075.9      87.1235      10.8358    
   10238.9      87.2021      10.5627    
   10404.5      87.2582      10.2954    
   10572.8      87.2970      10.0338    
   10743.8      87.3216      9.77794    
   10917.6      87.3343      9.52764    
   11094.2      87.3363      9.28286    
   11273.6      87.3287      9.04349    
   11455.9      87.3121      8.80948    
   11641.2      87.2871      8.58072    
   11829.5      87.2540      8.35713    
   12020.8      87.2130      8.13863    
   12215.3      87.1642      7.92511    
   12412.8      87.1076      7.71652    
   12613.6      87.0431      7.51273    
   12817.6      86.9706      7.31369    
   13025.0      86.8896      7.11929    
   13235.6      86.7997      6.92944    
   13449.7      86.7004      6.74407    
   13667.2      86.5909      6.56307    
   13888.3      86.4701      6.38638    
   14112.9      86.3367      6.21389    
   14341.2      86.1891      6.04553    
   14573.1      86.0250      5.88120    
   14808.9      85.8414      5.72084    
   15048.4      85.6342      5.56434    
   15291.8      85.3978      5.41164    
   15539.1      85.1238      5.26265    
   15790.4      84.7993      5.11728    
   16045.8      84.4028      4.97547    
   16305.4      83.8952      4.83712    
   16569.1      83.1915      4.70218    
   16837.1      82.0438      4.57055    
   17109.4      78.6184      4.44217    
   17166.2      65.9767      4.41610    
   17166.4      65.9770      10.6918    
   17386.1      81.4419      10.4638    
   17667.4      83.1057      10.1830    
   17953.1      83.9805      9.90984    
   18243.5      84.5468      9.64398    
   18538.6      84.9377      9.38526    
   18838.4      85.2071      9.13348    
   19143.1      85.3793      8.88847    
   19452.7      85.4626      8.65004    
   19767.4      85.4514      8.41801    
   20087.1      85.3197      8.19221    
   20412.0      84.9908      7.97247    
   20742.1      84.1388      7.75864    
   20947.5      76.5744      7.63016    
   20947.7      76.5750      10.8162    
   21077.6      83.7482      10.7130    
   21418.5      84.9753      10.4497    
   21757.3      82.4206      10.1985    
   21757.5      82.4216      11.5813    
   21765.0      84.1169      11.5758    
   22117.0      86.2433      11.3180    
   22474.7      86.9581      11.0638    
   22838.2      87.4811      10.8132    
   23207.6      87.9041      10.5665    
   23583.0      88.2616      10.3235    
   23964.4      88.5713      10.0845    
   24352.0      88.8441      9.84944    
   24745.9      89.0869      9.61834    
   25146.2      89.3048      9.39124    
   25552.9      89.5013      9.16818    
   25966.2      89.6793      8.94915    
   26386.1      89.8411      8.73417    
   26812.9      89.9885      8.52324    
   27246.6      90.1230      8.31635    
   27687.3      90.2458      8.11349    
   28135.1      90.3582      7.91465    
   28590.2      90.4611      7.71980    
   29052.6      90.5564      7.52892    
   29522.5      90.6621      7.34197    
   30000.0      90.6603      7.15894    
