 w , Z=74, (Energy (eV),f1,f2)
   10.0000     -9999.00      1.92561    
   10.1617     -9999.00      2.00960    
   10.3261     -9999.00      2.09726    
   10.4931     -9999.00      2.18440    
   10.6628     -9999.00      2.26770    
   10.8353     -9999.00      2.35418    
   11.0106     -9999.00      2.44395    
   11.1886     -9999.00      2.53715    
   11.3696     -9999.00      2.63390    
   11.5535     -9999.00      2.73433    
   11.7404     -9999.00      2.83114    
   11.9303     -9999.00      2.91038    
   12.1232     -9999.00      2.99182    
   12.3193     -9999.00      3.07555    
   12.5186     -9999.00      3.16163    
   12.7210     -9999.00      3.25011    
   12.9268     -9999.00      3.34107    
   13.1359     -9999.00      3.43457    
   13.3483     -9999.00      3.53069    
   13.5642     -9999.00      3.62951    
   13.7836     -9999.00      3.73108    
   14.0066     -9999.00      3.83550    
   14.2331     -9999.00      3.94284    
   14.4633     -9999.00      4.05319    
   14.6973     -9999.00      4.16662    
   14.9350     -9999.00      4.28323    
   15.1765     -9999.00      4.40310    
   15.4220     -9999.00      4.52632    
   15.6714     -9999.00      4.62599    
   15.9249     -9999.00      4.72570    
   16.1825     -9999.00      4.82756    
   16.4442     -9999.00      4.93161    
   16.7102     -9999.00      5.03791    
   16.9805     -9999.00      5.13492    
   17.2551     -9999.00      5.19275    
   17.5342     -9999.00      5.25124    
   17.8178     -9999.00      5.31039    
   18.1060     -9999.00      5.37020    
   18.3989     -9999.00      5.43069    
   18.6964     -9999.00      5.49185    
   18.9988     -9999.00      5.55277    
   19.3061     -9999.00      5.58261    
   19.6184     -9999.00      5.61262    
   19.9357     -9999.00      5.64279    
   20.2582     -9999.00      5.67312    
   20.5858     -9999.00      5.70361    
   20.9188     -9999.00      5.70699    
   21.2571     -9999.00      5.66109    
   21.6009     -9999.00      5.61556    
   21.9503     -9999.00      5.57040    
   22.3053     -9999.00      5.52610    
   22.6661     -9999.00      5.51486    
   23.0327     -9999.00      5.50363    
   23.4053     -9999.00      5.49243    
   23.7838     -9999.00      5.48126    
   24.1685     -9999.00      5.39224    
   24.5594     -9999.00      5.26283    
   24.9566     -9999.00      5.13652    
   25.3603     -9999.00      5.01679    
   25.7705     -9999.00      4.93146    
   26.1873     -9999.00      4.84757    
   26.6109     -9999.00      4.76511    
   27.0413     -9999.00      4.68406    
   27.4786     -9999.00      4.61341    
   27.9231     -9999.00      4.55817    
   28.3747     -9999.00      4.50359    
   28.8337     -9999.00      4.44966    
   29.3000      4.76736      4.37517    
   29.7739      4.70963      4.27410    
   30.2555      4.62152      4.17536    
   30.7449      4.50424      4.07891    
   31.2421      4.35845      3.99307    
   31.7475      4.19553      3.92790    
   32.2609      4.01451      3.86379    
   32.7827      3.79803      3.81342    
   33.3130      3.56442      3.79440    
   33.8518      3.32101      3.77546    
   34.3993      3.02863      3.75662    
   34.9557      2.67905      3.80998    
   35.5211      2.34050      3.93028    
   36.0956      2.02452      4.05437    
   36.6794      1.68082      4.18238    
   37.2727      1.27743      4.34596    
   37.8755     0.856621      4.59104    
   38.4882     0.434937      4.84995    
   39.1107    -0.949553E-01  5.12346    
   39.7432    -0.696808      5.69267    
   40.3861     -1.16494      6.37829    
   41.0393     -1.54965      7.14649    
   41.7031     -1.85297      8.00721    
   42.3776     -2.05779      8.97159    
   43.0630     -2.08736      10.0521    
   43.7595     -1.84901      11.0776    
   44.4673     -1.55224      11.9242    
   45.1865     -1.28175      12.8355    
   45.9174    -0.896568      13.7693    
   46.6600    -0.403206      14.7236    
   47.4147     0.325271      15.7439    
   48.1816      1.32982      16.4035    
   48.9609      2.21172      16.8280    
   49.7528      2.96832      17.2634    
   50.5576      3.74874      17.7101    
   51.3753      4.62257      18.1601    
   52.2062      5.55363      18.4770    
   53.0506      6.47528      18.7994    
   53.9087      7.50881      19.1275    
   54.7806      8.93020      19.4206    
   55.6667      10.3933      18.8848    
   56.5670      11.3591      18.3639    
   57.4820      12.2645      17.8005    
   58.4117      13.0228      17.0824    
   59.3564      13.6007      16.3933    
   60.3165      14.0834      15.7289    
   61.2921      14.4734      15.0448    
   62.2834      14.7503      14.3905    
   63.2908      14.9414      13.7646    
   64.3145      15.0519      13.2054    
   65.3547      15.1342      12.7038    
   66.4118      15.1954      12.2214    
   67.4859      15.2170      11.7572    
   68.5775      15.1576      11.3107    
   69.6867      15.0465      10.9783    
   70.8138      14.9964      10.7041    
   71.9591      14.9571      10.4368    
   73.1230      14.9162      10.1761    
   74.3057      14.8673      9.92198    
   75.5076      14.7943      9.67419    
   76.7289      14.7038      9.46429    
   77.9699      14.6286      9.26478    
   79.2310      14.5430      9.06949    
   80.5125      14.4375      8.87831    
   81.8147      14.2986      8.69117    
   83.1380      14.1395      8.60239    
   84.4827      14.0256      8.51942    
   85.8491      13.9224      8.43727    
   87.2377      13.8213      8.35590    
   88.6487      13.7141      8.27532    
   90.0825      13.5958      8.19883    
   91.5395      13.4726      8.15100    
   93.0201      13.3553      8.10343    
   94.5246      13.2319      8.05615    
   96.0535      13.0940      8.00914    
   97.6071      12.9178      7.96330    
   99.1858      12.7250      7.99865    
   100.790      12.5662      8.03416    
   102.420      12.3901      8.06982    
   104.077      12.1831      8.16647    
   105.760      12.0194      8.30774    
   107.471      11.8864      8.45144    
   109.209      11.7627      8.59763    
   110.975      11.6350      8.75625    
   112.770      11.5230      8.95557    
   114.594      11.4452      9.15942    
   116.448      11.3883      9.36791    
   118.331      11.3541      9.57067    
   120.245      11.3257      9.76418    
   122.190      11.3000      9.96159    
   124.166      11.2815      10.1630    
   126.175      11.2701      10.3685    
   128.215      11.2669      10.5793    
   130.289      11.2727      10.7944    
   132.397      11.2881      11.0139    
   134.538      11.3138      11.2378    
   136.714      11.3520      11.4663    
   138.925      11.4080      11.6994    
   141.172      11.4928      11.9373    
   143.456      11.6078      12.1077    
   145.776      11.6772      12.2637    
   148.134      11.7261      12.4216    
   150.530      11.7506      12.5815    
   152.964      11.7384      12.7863    
   155.439      11.7575      13.0425    
   157.953      11.8090      13.3037    
   160.507      11.8802      13.5702    
   163.103      11.9778      13.8421    
   165.742      12.0957      14.0876    
   168.422      12.2059      14.3333    
   171.146      12.3252      14.5833    
   173.915      12.4657      14.8377    
   176.727      12.6200      15.0544    
   179.586      12.7520      15.2693    
   182.491      12.8796      15.4874    
   185.442      12.9996      15.7085    
   188.442      13.1131      15.9497    
   191.489      13.2453      16.2015    
   194.587      13.3866      16.4574    
   197.734      13.5366      16.7172    
   200.932      13.6963      16.9812    
   204.182      13.8705      17.2493    
   207.485      14.0572      17.5050    
   210.840      14.2404      17.7612    
   214.251      14.4282      18.0213    
   217.716      14.6222      18.2851    
   221.237      14.8234      18.5528    
   224.816      15.0326      18.8244    
   228.452      15.2508      19.1000    
   232.147      15.4788      19.3796    
   235.902      15.7179      19.6633    
   239.717      15.9692      19.9512    
   243.595      16.2344      20.2433    
   247.535      16.5154      20.5397    
   251.538      16.8150      20.8404    
   255.607      17.1371      21.1455    
   259.741      17.4878      21.4551    
   263.942      17.8898      21.7692    
   268.211      18.3714      22.0879    
   272.549      18.8842      22.1997    
   276.957      19.3100      22.3023    
   281.437      19.7042      22.4054    
   285.989      20.0815      22.5090    
   290.615      20.4487      22.6131    
   295.315      20.8100      22.7176    
   300.092      21.1728      22.8226    
   304.945      21.5433      22.9170    
   309.878      21.8986      22.9934    
   314.890      22.2423      23.0700    
   319.983      22.5796      23.1469    
   325.158      22.9125      23.2241    
   330.418      23.2422      23.3015    
   335.762      23.5708      23.3791    
   341.192      23.9016      23.4498    
   346.711      24.2214      23.5152    
   352.319      24.5335      23.5808    
   358.017      24.8379      23.6465    
   363.808      25.1275      23.7125    
   369.692      25.3913      23.7833    
   375.672      25.6611      23.9214    
   381.748      25.9614      24.0604    
   387.922      26.2775      24.2001    
   394.197      26.6058      24.3406    
   400.573      26.9450      24.4820    
   407.052      27.2942      24.6242    
   413.635      27.6505      24.7672    
   420.326      28.0193      24.9279    
   427.124      28.4154      25.0919    
   434.032      28.8381      25.2570    
   441.052      29.2986      25.4232    
   448.186      29.8199      25.5904    
   455.435      30.3876      25.6527    
   462.802      30.9599      25.6361    
   470.287      31.4572      25.5805    
   477.894      31.9205      25.5241    
   485.623      32.3668      25.4677    
   493.478      32.8019      25.4117    
   501.459      33.2318      25.3568    
   509.570      33.6622      25.3012    
   517.812      34.1038      25.2389    
   526.187      34.5469      25.1542    
   534.698      34.9914      25.0262    
   543.346      35.3873      24.8776    
   552.134      35.7561      24.7316    
   561.065      36.0968      24.5729    
   570.139      36.3634      24.4244    
   579.361      36.6288      24.3871    
   588.732      36.9215      24.3792    
   598.254      37.2672      24.3902    
   607.930      37.6490      24.4012    
   617.763      38.0700      24.4120    
   627.755      38.5570      24.4162    
   637.908      39.0892      24.3402    
   648.226      39.6619      24.1461    
   658.711      40.1160      23.8760    
   669.365      40.5020      23.6088    
   680.191      40.8301      23.3816    
   691.193      41.1747      23.1848    
   702.372      41.5367      22.9935    
   713.733      41.9174      22.7630    
   725.277      42.2569      22.5068    
   737.008      42.5736      22.2536    
   748.928      42.8760      22.0030    
   761.042      43.1696      21.7546    
   773.351      43.4571      21.5038    
   785.859      43.7435      21.2386    
   798.570      44.0021      20.9624    
   811.486      44.2425      20.6895    
   824.611      44.4693      20.4201    
   837.949      44.6854      20.1541    
   851.502      44.8915      19.8876    
   865.274      45.0885      19.6204    
   879.269      45.2709      19.3532    
   893.491      45.4418      19.0895    
   907.943      45.6037      18.8291    
   922.628      45.7590      18.5720    
   937.551      45.9051      18.3094    
   952.715      46.0403      18.0479    
   968.124      46.1626      17.7879    
   983.783      46.2750      17.5316    
   999.695      46.3805      17.2773    
   1015.86      46.4801      17.0251    
   1032.29      46.5686      16.7615    
   1048.99      46.6436      16.4981    
   1065.96      46.7003      16.2346    
   1083.20      46.7420      15.9750    
   1100.72      46.7702      15.7194    
   1118.52      46.7853      15.4677    
   1136.61      46.7875      15.2195    
   1155.00      46.7766      14.9753    
   1173.68      46.7528      14.7350    
   1192.66      46.7162      14.4983    
   1211.95      46.6670      14.2653    
   1231.55      46.6066      14.0359    
   1251.47      46.5332      13.8032    
   1271.72      46.4469      13.5668    
   1292.29      46.3323      13.3251    
   1313.19      46.1925      13.0880    
   1334.43      46.0286      12.8548    
   1356.01      45.8390      12.6253    
   1377.94      45.6219      12.3998    
   1400.23      45.3753      12.1782    
   1422.88      45.0960      11.9604    
   1445.89      44.7805      11.7465    
   1469.28      44.4253      11.5356    
   1493.04      44.0231      11.3271    
   1517.19      43.5648      11.1185    
   1541.73      43.0395      10.9133    
   1566.67      42.4349      10.7118    
   1592.01      41.7339      10.5136    
   1617.76      40.9118      10.3190    
   1643.92      39.9337      10.1279    
   1670.51      38.7448      9.93981    
   1697.53      37.2555      9.75518    
   1724.99      35.3035      9.57416    
   1752.89      32.5285      9.39237    
   1781.24      27.8215      9.21314    
   1809.10     -5.97034      9.04302    
   1809.30     -5.97236      27.4067    
   1810.05      6.47795      27.3957    
   1839.32      25.3867      26.9718    
   1869.07      19.6862      26.5545    
   1871.50      7.05247      26.5210    
   1871.70      7.09116      39.3058    
   1899.30      32.6271      38.4917    
   1930.02      37.8064      37.6188    
   1961.24      41.1866      36.7657    
   1992.96      43.7210      35.9316    
   2025.20      45.7388      35.1245    
   2057.95      47.3887      34.3268    
   2091.24      48.7483      33.5474    
   2125.06      49.8613      32.7861    
   2159.43      50.7406      32.0413    
   2194.36      51.3595      31.3139    
   2229.85      51.5954      30.6028    
   2265.92      50.4472      29.9073    
   2280.90      43.6931      29.6262    
   2281.10      43.7125      34.5265    
   2302.57      52.2358      34.0187    
   2339.81      54.5830      33.1663    
   2377.66      56.0179      32.3350    
   2416.11      57.0906      31.5253    
   2455.19      57.9235      30.7352    
   2494.90      58.5425      29.9666    
   2535.26      58.8681      29.2162    
   2574.80      55.8913      28.5102    
   2575.00      55.9033      30.4563    
   2576.26      57.4730      30.4338    
   2617.93      60.1862      29.7070    
   2660.27      61.1190      28.9986    
   2703.30      61.7965      28.3088    
   2747.03      62.2947      27.6345    
   2791.46      62.5276      26.9766    
   2819.50      60.7185      26.5747    
   2819.70      60.7205      27.7635    
   2836.61      62.8540      27.5365    
   2882.49      63.8348      26.9362    
   2929.11      64.4967      26.3459    
   2976.48      65.0523      25.7661    
   3024.63      65.5432      25.1969    
   3073.55      65.9864      24.6371    
   3123.26      66.3897      24.0864    
   3173.78      66.7594      23.5467    
   3225.11      67.0995      23.0165    
   3277.27      67.4136      22.4971    
   3330.28      67.7037      21.9869    
   3384.15      67.9723      21.4872    
   3438.88      68.2205      20.9967    
   3494.50      68.4508      20.5170    
   3551.02      68.6634      20.0454    
   3608.46      68.8598      19.5841    
   3666.82      69.0413      19.1323    
   3726.13      69.2090      18.6901    
   3786.40      69.3635      18.2564    
   3847.64      69.5054      17.8322    
   3909.87      69.6361      17.4172    
   3973.11      69.7559      17.0105    
   4037.38      69.8651      16.6123    
   4102.68      69.9646      16.2229    
   4169.03      70.0547      15.8417    
   4236.46      70.1362      15.4689    
   4304.98      70.2094      15.1040    
   4374.62      70.2748      14.7470    
   4445.37      70.3326      14.3978    
   4517.27      70.3833      14.0563    
   4590.33      70.4273      13.7222    
   4664.58      70.4649      13.3956    
   4740.03      70.4963      13.0762    
   4816.69      70.5219      12.7638    
   4894.60      70.5418      12.4582    
   4973.77      70.5563      12.1595    
   5054.21      70.5657      11.8676    
   5135.96      70.5703      11.5823    
   5219.03      70.5700      11.3031    
   5303.44      70.5651      11.0303    
   5389.22      70.5558      10.7638    
   5476.39      70.5421      10.5032    
   5564.97      70.5244      10.2487    
   5654.98      70.5026      9.99963    
   5746.44      70.4768      9.75652    
   5839.39      70.4471      9.51885    
   5933.83      70.4136      9.28670    
   6029.81      70.3763      9.05985    
   6127.33      70.3354      8.83832    
   6226.44      70.2908      8.62177    
   6327.15      70.2424      8.41019    
   6429.48      70.1903      8.20363    
   6533.48      70.1344      8.00161    
   6639.15      70.0746      7.80458    
   6746.54      70.0110      7.61195    
   6855.65      69.9433      7.42381    
   6966.54      69.8712      7.24003    
   7079.22      69.7948      7.06071    
   7193.72      69.7140      6.88554    
   7310.07      69.6281      6.71427    
   7428.31      69.5370      6.54723    
   7548.45      69.4403      6.38389    
   7670.54      69.3374      6.22459    
   7794.61      69.2277      6.06886    
   7920.68      69.1107      5.91705    
   8048.79      68.9856      5.76854    
   8178.98      68.8508      5.62347    
   8311.26      68.7055      5.48197    
   8445.69      68.5479      5.34367    
   8582.29      68.3758      5.20867    
   8721.11      68.1867      5.07700    
   8862.16      67.9770      4.94849    
   9005.50      67.7419      4.82274    
   9151.16      67.4743      4.70000    
   9299.17      67.1641      4.58005    
   9449.58      66.7953      4.46309    
   9602.42      66.3410      4.34892    
   9757.73      65.7488      4.23751    
   9915.55      64.8932      4.12834    
   10075.9      63.3691      4.02661    
   10206.7      49.2764      3.94668    
   10206.9      49.2776      10.1744    
   10238.9      60.6612      10.1167    
   10404.5      64.2746      9.82605    
   10572.8      65.4185      9.54373    
   10743.8      66.0305      9.26953    
   10917.6      66.3584      9.00320    
   11094.2      66.4581      8.74453    
   11273.6      66.2772      8.49329    
   11455.9      65.4112      8.24927    
   11543.9      58.5923      8.13540    
   11544.1      58.5936      11.3916    
   11641.2      65.7073      11.2321    
   11829.5      66.8700      10.9328    
   12020.8      67.0581      10.6414    
   12099.7      64.0252      10.5249    
   12099.9      64.0259      12.0732    
   12215.3      67.8337      11.9003    
   12412.8      68.7935      11.6137    
   12613.6      69.4293      11.3325    
   12817.6      69.9296      11.0568    
   13025.0      70.3469      10.7866    
   13235.6      70.7053      10.5219    
   13449.7      71.0187      10.2626    
   13667.2      71.2959      10.0086    
   13888.3      71.5432      9.75988    
   14112.9      71.7652      9.51645    
   14341.2      71.9653      9.27824    
   14573.1      72.1463      9.04516    
   14808.9      72.3104      8.81717    
   15048.4      72.4594      8.59420    
   15291.8      72.5950      8.37618    
   15539.1      72.7183      8.16305    
   15790.4      72.8306      7.95472    
   16045.8      72.9329      7.75114    
   16305.4      73.0259      7.55222    
   16569.1      73.1104      7.35791    
   16837.1      73.1872      7.16810    
   17109.4      73.2568      6.98274    
   17386.1      73.3198      6.80175    
   17667.4      73.3767      6.62504    
   17953.1      73.4279      6.45255    
   18243.5      73.4738      6.28419    
   18538.6      73.5148      6.11989    
   18838.4      73.5512      5.95956    
   19143.1      73.5834      5.80314    
   19452.7      73.6117      5.65054    
   19767.4      73.6363      5.50169    
   20087.1      73.6574      5.35651    
   20412.0      73.6754      5.21493    
   20742.1      73.6903      5.07687    
   21077.6      73.7025      4.94225    
   21418.5      73.7120      4.81102    
   21765.0      73.7191      4.68308    
   22117.0      73.7240      4.55837    
   22474.7      73.7267      4.43683    
   22838.2      73.7274      4.31836    
   23207.6      73.7263      4.20292    
   23583.0      73.7235      4.09042    
   23964.4      73.7190      3.98082    
   24352.0      73.7130      3.87402    
   24745.9      73.7057      3.76999    
   25146.2      73.6970      3.66863    
   25552.9      73.6871      3.56991    
   25966.2      73.6760      3.47374    
   26386.1      73.6639      3.38008    
   26812.9      73.6508      3.28886    
   27246.6      73.6368      3.20002    
   27687.3      73.6219      3.11351    
   28135.1      73.6063      3.02926    
   28590.2      73.5900      2.94724    
   29052.6      73.5735      2.86736    
   29522.5      73.5638      2.78960    
   30000.0      73.5135      2.71389    
