 zn, Z=30, (Energy (eV),f1,f2)
   10.0000     -9999.00      2.21675    
   10.1617     -9999.00      2.11915    
   10.3261     -9999.00      2.02585    
   10.4931     -9999.00      1.93665    
   10.6628     -9999.00      1.85138    
   10.8353     -9999.00      1.76986    
   11.0106     -9999.00      1.69194    
   11.1886     -9999.00      1.63293    
   11.3696     -9999.00      1.57784    
   11.5535     -9999.00      1.52460    
   11.7404     -9999.00      1.47317    
   11.9303     -9999.00      1.41678    
   12.1232     -9999.00      1.35880    
   12.3193     -9999.00      1.30320    
   12.5186     -9999.00      1.29898    
   12.7210     -9999.00      1.30061    
   12.9268     -9999.00      1.30258    
   13.1359     -9999.00      1.31477    
   13.3483     -9999.00      1.32707    
   13.5642     -9999.00      1.33949    
   13.7836     -9999.00      1.35171    
   14.0066     -9999.00      1.36387    
   14.2331     -9999.00      1.37615    
   14.4633     -9999.00      1.38853    
   14.6973     -9999.00      1.40102    
   14.9350     -9999.00      1.41363    
   15.1765     -9999.00      1.42635    
   15.4220     -9999.00      1.43918    
   15.6714     -9999.00      1.45213    
   15.9249     -9999.00      1.46519    
   16.1825     -9999.00      1.49662    
   16.4442     -9999.00      1.52989    
   16.7102     -9999.00      1.56390    
   16.9805     -9999.00      1.59867    
   17.2551     -9999.00      1.63422    
   17.5342     -9999.00      1.67055    
   17.8178     -9999.00      1.70769    
   18.1060     -9999.00      1.74565    
   18.3989     -9999.00      1.78446    
   18.6964     -9999.00      1.82414    
   18.9988     -9999.00      1.86469    
   19.3061     -9999.00      1.90615    
   19.6184     -9999.00      1.94852    
   19.9357     -9999.00      1.99185    
   20.2582     -9999.00      2.04253    
   20.5858     -9999.00      2.09481    
   20.9188     -9999.00      2.14843    
   21.2571     -9999.00      2.20343    
   21.6009     -9999.00      2.25983    
   21.9503     -9999.00      2.31768    
   22.3053     -9999.00      2.37700    
   22.6661     -9999.00      2.43784    
   23.0327     -9999.00      2.50025    
   23.4053     -9999.00      2.56425    
   23.7838     -9999.00      2.62988    
   24.1685     -9999.00      2.69720    
   24.5594     -9999.00      2.76624    
   24.9566     -9999.00      2.83705    
   25.3603     -9999.00      2.90967    
   25.7705     -9999.00      2.98415    
   26.1873     -9999.00      3.06053    
   26.6109     -9999.00      3.14002    
   27.0413     -9999.00      3.22160    
   27.4786     -9999.00      3.30531    
   27.9231     -9999.00      3.39119    
   28.3747     -9999.00      3.47930    
   28.8337     -9999.00      3.56970    
   29.3000    -0.776021      3.66245    
   29.7739    -0.773223      3.75761    
   30.2555    -0.768501      3.85525    
   30.7449    -0.761632      3.95541    
   31.2421    -0.752332      4.05818    
   31.7475    -0.740234      4.16363    
   32.2609    -0.724803      4.27181    
   32.7827    -0.705148      4.38280    
   33.3130    -0.679227      4.49668    
   33.8518    -0.641458      4.60456    
   34.3993    -0.610078      4.70598    
   34.9557    -0.580116      4.80963    
   35.5211    -0.549776      4.91556    
   36.0956    -0.518270      5.02382    
   36.6794    -0.485088      5.13448    
   37.2727    -0.449802      5.24757    
   37.8755    -0.412036      5.36314    
   38.4882    -0.371393      5.48127    
   39.1107    -0.327445      5.60199    
   39.7432    -0.279697      5.72538    
   40.3861    -0.227567      5.85148    
   41.0393    -0.170310      5.98036    
   41.7031    -0.106943      6.11208    
   42.3776    -0.360293E-01  6.24670    
   43.0630     0.445447E-01  6.38429    
   43.7595     0.142962      6.52490    
   44.4673     0.279376      6.64850    
   45.1865     0.395691      6.72805    
   45.9174     0.494574      6.80854    
   46.6600     0.587305      6.89000    
   47.4147     0.676510      6.97243    
   48.1816     0.763621      7.05586    
   48.9609     0.849518      7.14028    
   49.7528     0.934855      7.22570    
   50.5576      1.02011      7.31215    
   51.3753      1.10570      7.39964    
   52.2062      1.19198      7.48817    
   53.0506      1.27933      7.57775    
   53.9087      1.36810      7.66842    
   54.7806      1.45870      7.76017    
   55.6667      1.55164      7.85301    
   56.5670      1.64759      7.94696    
   57.4820      1.74753      8.04204    
   58.4117      1.85504      8.13826    
   59.3564      1.98045      8.22295    
   60.3165      2.09242      8.29284    
   61.2921      2.19732      8.36333    
   62.2834      2.29996      8.43442    
   63.2908      2.40119      8.50610    
   64.3145      2.50160      8.57840    
   65.3547      2.60157      8.65132    
   66.4118      2.70142      8.72484    
   67.4859      2.80139      8.79900    
   68.5775      2.90170      8.87380    
   69.6867      3.00257      8.94922    
   70.8138      3.10427      9.02528    
   71.9591      3.20713      9.10200    
   73.1230      3.31207      9.17936    
   74.3057      3.42206      9.25724    
   75.5076      3.53130      9.32497    
   76.7289      3.63643      9.39320    
   77.9699      3.73952      9.46193    
   79.2310      3.84104      9.53116    
   80.5125      3.94093      9.60090    
   81.8147      4.03877      9.67114    
   83.1380      4.13273      9.74191    
   84.4827      4.21540      9.81362    
   85.8491      4.30144      9.91179    
   87.2377      4.39863      10.0109    
   88.6487      4.50187      10.1111    
   90.0825      4.60971      10.2122    
   91.5395      4.72168      10.3144    
   93.0201      4.83756      10.4176    
   94.5246      4.95735      10.5218    
   96.0535      5.08112      10.6270    
   97.6071      5.20911      10.7333    
   99.1858      5.34159      10.8407    
   100.790      5.47905      10.9491    
   102.420      5.62221      11.0587    
   104.077      5.77232      11.1693    
   105.760      5.93214      11.2810    
   107.471      6.11215      11.3867    
   109.209      6.28638      11.4667    
   110.975      6.45467      11.5474    
   112.770      6.62137      11.6286    
   114.594      6.78920      11.7104    
   116.448      6.95957      11.7927    
   118.331      7.13395      11.8757    
   120.245      7.31437      11.9592    
   122.190      7.50484      12.0433    
   124.166      7.71899      12.1280    
   126.175      7.97487      12.1589    
   128.215      8.17143      12.1318    
   130.289      8.32718      12.1048    
   132.397      8.44808      12.0779    
   134.538      8.52180      12.0510    
   136.714      8.46565      12.0242    
   138.925      8.38133      12.2805    
   141.172      8.47360      12.6256    
   143.456      8.69958      12.9805    
   145.776      9.17969      13.2730    
   148.134      9.58846      13.2870    
   150.530      9.89741      13.3010    
   152.964      10.1781      13.3150    
   155.439      10.4431      13.3290    
   157.953      10.6986      13.3430    
   160.507      10.9483      13.3571    
   163.103      11.1947      13.3712    
   165.742      11.4399      13.3853    
   168.422      11.6854      13.3993    
   171.146      11.9331      13.4135    
   173.915      12.1849      13.4276    
   176.727      12.4440      13.4417    
   179.586      12.7177      13.4559    
   182.491      13.0284      13.4390    
   185.442      13.3103      13.3832    
   188.442      13.5693      13.3275    
   191.489      13.8214      13.2721    
   194.587      14.0695      13.2170    
   197.734      14.3163      13.1621    
   200.932      14.5642      13.1074    
   204.182      14.8169      13.0529    
   207.485      15.0804      12.9986    
   210.840      15.3763      12.9446    
   214.251      15.6953      12.8045    
   217.716      15.9603      12.6274    
   221.237      16.1810      12.4527    
   224.816      16.3781      12.2804    
   228.452      16.5425      12.1105    
   232.147      16.6996      11.9778    
   235.902      16.8612      11.8471    
   239.717      17.0205      11.7177    
   243.595      17.1762      11.5898    
   247.535      17.3281      11.4633    
   251.538      17.4762      11.3382    
   255.607      17.6206      11.2144    
   259.741      17.7616      11.0920    
   263.942      17.8993      10.9709    
   268.211      18.0341      10.8511    
   272.549      18.1661      10.7327    
   276.957      18.2957      10.6155    
   281.437      18.4232      10.4996    
   285.989      18.5490      10.3850    
   290.615      18.6737      10.2717    
   295.315      18.7983      10.1595    
   300.092      18.9256      10.0486    
   304.945      19.0576      9.92718    
   309.878      19.1795      9.79825    
   314.890      19.2922      9.67098    
   319.983      19.4002      9.54537    
   325.158      19.5045      9.42140    
   330.418      19.6055      9.29903    
   335.762      19.7039      9.17825    
   341.192      19.8001      9.05904    
   346.711      19.8946      8.94138    
   352.319      19.9879      8.82525    
   358.017      20.0807      8.71063    
   363.808      20.1741      8.59749    
   369.692      20.2694      8.48582    
   375.672      20.3696      8.37561    
   381.748      20.4961      8.25075    
   387.922      20.6004      8.09404    
   394.197      20.6813      7.94030    
   400.573      20.7527      7.78948    
   407.052      20.8164      7.64153    
   413.635      20.8739      7.49639    
   420.326      20.9260      7.35400    
   427.124      20.9737      7.21433    
   434.032      21.0176      7.07729    
   441.052      21.0586      6.94287    
   448.186      21.0978      6.81100    
   455.435      21.1375      6.68163    
   462.802      21.1887      6.54388    
   470.287      21.2241      6.38945    
   477.894      21.2422      6.23865    
   485.623      21.2519      6.09142    
   493.478      21.2541      5.94765    
   501.459      21.2495      5.80729    
   509.570      21.2387      5.67023    
   517.812      21.2218      5.53642    
   526.187      21.1988      5.40575    
   534.698      21.1695      5.27817    
   543.346      21.1327      5.15360    
   552.134      21.0828      5.03197    
   561.065      21.0327      4.93231    
   570.139      20.9823      4.83383    
   579.361      20.9323      4.74119    
   588.732      20.8817      4.65153    
   598.254      20.8305      4.56431    
   607.930      20.7776      4.47866    
   617.763      20.7226      4.39466    
   627.755      20.6662      4.31200    
   637.908      20.6073      4.22781    
   648.226      20.5433      4.14084    
   658.711      20.4695      4.05279    
   669.365      20.3844      3.96658    
   680.191      20.2884      3.89183    
   691.193      20.1910      3.82593    
   702.372      20.0962      3.76353    
   713.733      19.9984      3.69825    
   725.277      19.8926      3.63144    
   737.008      19.7785      3.56582    
   748.928      19.6559      3.50143    
   761.042      19.5248      3.43806    
   773.351      19.3853      3.37406    
   785.859      19.2341      3.30526    
   798.570      19.0629      3.23298    
   811.486      18.8712      3.16227    
   824.611      18.6577      3.09309    
   837.949      18.4196      3.02541    
   851.502      18.1529      2.95935    
   865.274      17.8525      2.89479    
   879.269      17.5114      2.83170    
   893.491      17.1200      2.77006    
   907.943      16.6648      2.70974    
   922.628      16.1244      2.65071    
   937.551      15.4734      2.60046    
   952.715      14.6664      2.55306    
   968.124      13.6188      2.50819    
   983.783      12.1504      2.46410    
   999.695      9.77174      2.42102    
   1015.86      3.76919      2.37892    
   1021.70     -15.4199      2.36407    
   1021.90     -15.4118      17.2327    
   1032.29      6.78343      17.1037    
   1048.99      11.5047      16.9012    
   1065.96      13.9824      16.7012    
   1083.20      15.7067      16.5025    
   1100.72      17.0460      16.3064    
   1118.52      18.1518      16.1129    
   1136.61      19.1008      15.9216    
   1155.00      19.9384      15.7325    
   1173.68      20.6939      15.5457    
   1192.66      21.3889      15.3612    
   1211.95      22.0414      15.1788    
   1231.55      22.6773      14.9985    
   1251.47      23.3018      14.7734    
   1271.72      23.9032      14.5006    
   1292.29      24.4216      14.1709    
   1313.19      24.8733      13.8488    
   1334.43      25.2792      13.5340    
   1356.01      25.6482      13.2265    
   1377.94      25.9862      12.9259    
   1400.23      26.2971      12.6321    
   1422.88      26.5843      12.3449    
   1445.89      26.8507      12.0644    
   1469.28      27.0988      11.7896    
   1493.04      27.3304      11.5203    
   1517.19      27.5455      11.2544    
   1541.73      27.7449      10.9942    
   1566.67      27.9302      10.7400    
   1592.01      28.1031      10.4916    
   1617.76      28.2645      10.2490    
   1643.92      28.4157      10.0120    
   1670.51      28.5577      9.78048    
   1697.53      28.6913      9.55431    
   1724.99      28.8210      9.33336    
   1752.89      28.9428      9.11024    
   1781.24      29.0539      8.89009    
   1810.05      29.1556      8.67363    
   1839.32      29.2485      8.46234    
   1869.07      29.3341      8.25614    
   1899.30      29.4130      8.05493    
   1930.02      29.4859      7.85868    
   1961.24      29.5532      7.66730    
   1992.96      29.6146      7.48068    
   2025.20      29.6757      7.30176    
   2057.95      29.7333      7.12066    
   2091.24      29.7840      6.94307    
   2125.06      29.8299      6.76946    
   2159.43      29.8714      6.59974    
   2194.36      29.9092      6.43388    
   2229.85      29.9429      6.27136    
   2265.92      29.9731      6.11279    
   2302.57      30.0002      5.95786    
   2339.81      30.0241      5.80606    
   2377.66      30.0449      5.65807    
   2416.11      30.0630      5.51334    
   2455.19      30.0783      5.37202    
   2494.90      30.0912      5.23407    
   2535.26      30.1019      5.09933    
   2576.26      30.1103      4.96775    
   2617.93      30.1165      4.83924    
   2660.27      30.1208      4.71406    
   2703.30      30.1233      4.59161    
   2747.03      30.1241      4.47218    
   2791.46      30.1231      4.35568    
   2836.61      30.1207      4.24205    
   2882.49      30.1168      4.13114    
   2929.11      30.1116      4.02294    
   2976.48      30.1051      3.91741    
   3024.63      30.0973      3.81450    
   3073.55      30.0885      3.71411    
   3123.26      30.0785      3.61621    
   3173.78      30.0676      3.52074    
   3225.11      30.0557      3.42769    
   3277.27      30.0429      3.33695    
   3330.28      30.0294      3.24849    
   3384.15      30.0150      3.16229    
   3438.88      29.9999      3.07827    
   3494.50      29.9841      2.99636    
   3551.02      29.9678      2.91654    
   3608.46      29.9507      2.83873    
   3666.82      29.9332      2.76294    
   3726.13      29.9151      2.68908    
   3786.40      29.8965      2.61709    
   3847.64      29.8775      2.54695    
   3909.87      29.8580      2.47863    
   3973.11      29.8381      2.41202    
   4037.38      29.8178      2.34720    
   4102.68      29.7971      2.28400    
   4169.03      29.7761      2.22246    
   4236.46      29.7547      2.16251    
   4304.98      29.7331      2.10414    
   4374.62      29.7111      2.04722    
   4445.37      29.6888      1.99183    
   4517.27      29.6662      1.93789    
   4590.33      29.6434      1.88530    
   4664.58      29.6202      1.83415    
   4740.03      29.5968      1.78428    
   4816.69      29.5731      1.73575    
   4894.60      29.5491      1.68848    
   4973.77      29.5248      1.64246    
   5054.21      29.5002      1.59766    
   5135.96      29.4753      1.55398    
   5219.03      29.4501      1.51146    
   5303.44      29.4246      1.47005    
   5389.22      29.3987      1.42974    
   5476.39      29.3724      1.39045    
   5564.97      29.3456      1.35225    
   5654.98      29.3185      1.31507    
   5746.44      29.2910      1.27882    
   5839.39      29.2628      1.24350    
   5933.83      29.2342      1.20914    
   6029.81      29.2049      1.17569    
   6127.33      29.1750      1.14312    
   6226.44      29.1443      1.11136    
   6327.15      29.1129      1.08048    
   6429.48      29.0806      1.05044    
   6533.48      29.0473      1.02112    
   6639.15      29.0129     0.992600    
   6746.54      28.9773     0.964826    
   6855.65      28.9404     0.937786    
   6966.54      28.9019     0.911450    
   7079.22      28.8618     0.885808    
   7193.72      28.8197     0.860833    
   7310.07      28.7754     0.836517    
   7428.31      28.7285     0.812835    
   7548.45      28.6788     0.789772    
   7670.54      28.6257     0.767321    
   7794.61      28.5687     0.745456    
   7920.68      28.5070     0.724156    
   8048.79      28.4398     0.703408    
   8178.98      28.3659     0.683209    
   8311.26      28.2838     0.663533    
   8445.69      28.1913     0.644378    
   8582.29      28.0858     0.625712    
   8721.11      27.9628     0.607531    
   8862.16      27.8162     0.589828    
   9005.50      27.6352     0.572591    
   9151.16      27.4010     0.555792    
   9299.17      27.0735     0.539425    
   9449.58      26.5430     0.523484    
   9602.42      25.1991     0.507960    
   9658.50      18.4095     0.502440    
   9658.70      18.4099      3.89191    
   9757.73      25.9194      3.83265    
   9915.55      27.0089      3.74123    
   10075.9      27.5766      3.65173    
   10238.9      27.9665      3.56370    
   10404.5      28.2638      3.47717    
   10572.8      28.5036      3.39214    
   10743.8      28.7037      3.30863    
   10917.6      28.8747      3.22663    
   11094.2      29.0231      3.14617    
   11273.6      29.1537      3.06723    
   11455.9      29.2695      2.98982    
   11641.2      29.3730      2.91394    
   11829.5      29.4660      2.83957    
   12020.8      29.5500      2.76672    
   12215.3      29.6261      2.69537    
   12412.8      29.6952      2.62552    
   12613.6      29.7582      2.55716    
   12817.6      29.8156      2.49026    
   13025.0      29.8681      2.42482    
   13235.6      29.9160      2.36082    
   13449.7      29.9599      2.29824    
   13667.2      30.0001      2.23707    
   13888.3      30.0368      2.17730    
   14112.9      30.0705      2.11889    
   14341.2      30.1012      2.06184    
   14573.1      30.1293      2.00612    
   14808.9      30.1550      1.95172    
   15048.4      30.1784      1.89861    
   15291.8      30.1997      1.84677    
   15539.1      30.2191      1.79618    
   15790.4      30.2366      1.74682    
   16045.8      30.2525      1.69867    
   16305.4      30.2668      1.65170    
   16569.1      30.2796      1.60590    
   16837.1      30.2911      1.56124    
   17109.4      30.3014      1.51771    
   17386.1      30.3104      1.47527    
   17667.4      30.3184      1.43391    
   17953.1      30.3253      1.39361    
   18243.5      30.3313      1.35434    
   18538.6      30.3364      1.31608    
   18838.4      30.3406      1.27882    
   19143.1      30.3441      1.24252    
   19452.7      30.3469      1.20718    
   19767.4      30.3490      1.17276    
   20087.1      30.3504      1.13926    
   20412.0      30.3513      1.10664    
   20742.1      30.3516      1.07489    
   21077.6      30.3514      1.04398    
   21418.5      30.3507      1.01391    
   21765.0      30.3496     0.984646    
   22117.0      30.3481     0.956173    
   22474.7      30.3463     0.928472    
   22838.2      30.3440     0.901523    
   23207.6      30.3415     0.875310    
   23583.0      30.3386     0.849815    
   23964.4      30.3355     0.825020    
   24352.0      30.3322     0.800908    
   24745.9      30.3286     0.777463    
   25146.2      30.3248     0.754667    
   25552.9      30.3207     0.732505    
   25966.2      30.3166     0.710960    
   26386.1      30.3122     0.690017    
   26812.9      30.3078     0.669660    
   27246.6      30.3032     0.649875    
   27687.3      30.2984     0.630648    
   28135.1      30.2936     0.611962    
   28590.2      30.2887     0.593805    
   29052.6      30.2839     0.576163    
   29522.5      30.2805     0.559022    
   30000.0      30.2686     0.542369    
