 zr, Z=40, (Energy (eV),f1,f2)
   10.0000     -9999.00      4.11366    
   10.1617     -9999.00      4.27349    
   10.3261     -9999.00      4.43952    
   10.4931     -9999.00      4.61201    
   10.6628     -9999.00      4.74395    
   10.8353     -9999.00      4.82880    
   11.0106     -9999.00      4.91516    
   11.1886     -9999.00      4.99989    
   11.3696     -9999.00      5.02257    
   11.5535     -9999.00      5.04535    
   11.7404     -9999.00      5.06822    
   11.9303     -9999.00      5.09121    
   12.1232     -9999.00      5.11430    
   12.3193     -9999.00      5.10752    
   12.5186     -9999.00      5.09966    
   12.7210     -9999.00      5.09182    
   12.9268     -9999.00      5.08399    
   13.1359     -9999.00      5.07618    
   13.3483     -9999.00      5.06837    
   13.5642     -9999.00      5.06058    
   13.7836     -9999.00      5.01779    
   14.0066     -9999.00      4.97265    
   14.2331     -9999.00      4.92792    
   14.4633     -9999.00      4.88360    
   14.6973     -9999.00      4.83968    
   14.9350     -9999.00      4.79615    
   15.1765     -9999.00      4.74155    
   15.4220     -9999.00      4.67537    
   15.6714     -9999.00      4.61010    
   15.9249     -9999.00      4.54575    
   16.1825     -9999.00      4.48229    
   16.4442     -9999.00      4.41972    
   16.7102     -9999.00      4.35801    
   16.9805     -9999.00      4.27943    
   17.2551     -9999.00      4.20227    
   17.5342     -9999.00      4.12650    
   17.8178     -9999.00      4.05210    
   18.1060     -9999.00      3.97904    
   18.3989     -9999.00      3.90729    
   18.6964     -9999.00      3.85160    
   18.9988     -9999.00      3.79727    
   19.3061     -9999.00      3.74371    
   19.6184     -9999.00      3.69090    
   19.9357     -9999.00      3.63884    
   20.2582     -9999.00      3.58751    
   20.5858     -9999.00      3.53691    
   20.9188     -9999.00      3.48702    
   21.2571     -9999.00      3.45137    
   21.6009     -9999.00      3.43602    
   21.9503     -9999.00      3.42073    
   22.3053     -9999.00      3.40551    
   22.6661     -9999.00      3.39036    
   23.0327     -9999.00      3.39101    
   23.4053     -9999.00      3.39979    
   23.7838     -9999.00      3.40859    
   24.1685     -9999.00      3.41742    
   24.5594     -9999.00      3.44217    
   24.9566     -9999.00      3.50412    
   25.3603     -9999.00      3.56718    
   25.7705     -9999.00      3.63944    
   26.1873     -9999.00      3.81808    
   26.6109     -9999.00      4.00548    
   27.0413     -9999.00      4.20207    
   27.4786     -9999.00      4.43607    
   27.9231     -9999.00      4.69840    
   28.3747     -9999.00      4.97623    
   28.8337     -9999.00      5.27049    
   29.3000      1.76014      5.58215    
   29.7739      1.61517      5.91225    
   30.2555      1.47939      6.30096    
   30.7449      1.37491      6.72713    
   31.2421      1.29869      7.18213    
   31.7475      1.24888      7.66790    
   32.2609      1.22997      8.18654    
   32.7827      1.24389      8.74033    
   33.3130      1.29976      9.33285    
   33.8518      1.40403      9.96557    
   34.3993      1.56987      10.6412    
   34.9557      1.81082      11.3626    
   35.5211      2.14354      12.1329    
   36.0956      2.74928      12.9554    
   36.6794      3.41151      13.4923    
   37.2727      4.03161      14.0425    
   37.8755      4.70672      14.6152    
   38.4882      5.54489      15.2112    
   39.1107      6.56575      15.6674    
   39.7432      7.55569      15.9184    
   40.3861      8.54689      16.1735    
   41.0393      9.76853      16.4327    
   41.7031      11.2119      16.3602    
   42.3776      12.4356      15.8715    
   43.0630      13.6131      15.3974    
   43.7595      14.6432      14.5006    
   44.4673      15.3768      13.5473    
   45.1865      15.8686      12.6566    
   45.9174      16.2319      11.8245    
   46.6600      16.4974      11.0471    
   47.4147      16.6860      10.3208    
   48.1816      16.8137      9.64227    
   48.9609      16.8912      9.00834    
   49.7528      16.9281      8.41608    
   50.5576      16.9310      7.86277    
   51.3753      16.9060      7.34583    
   52.2062      16.8577      6.86288    
   53.0506      16.7902      6.41168    
   53.9087      16.7068      5.99014    
   54.7806      16.6108      5.59632    
   55.6667      16.5065      5.22799    
   56.5670      16.3909      4.87718    
   57.4820      16.2643      4.54990    
   58.4117      16.1301      4.24460    
   59.3564      15.9899      3.95978    
   60.3165      15.8452      3.69406    
   61.2921      15.6968      3.44618    
   62.2834      15.5457      3.21493    
   63.2908      15.3923      2.99920    
   64.3145      15.2372      2.79795    
   65.3547      15.0806      2.61020    
   66.4118      14.9227      2.43505    
   67.4859      14.7633      2.27165    
   68.5775      14.6020      2.11922    
   69.6867      14.4387      1.97701    
   70.8138      14.2604      1.84435    
   71.9591      14.0775      1.74393    
   73.1230      13.9148      1.67027    
   74.3057      13.7671      1.59971    
   75.5076      13.6270      1.53214    
   76.7289      13.4918      1.46742    
   77.9699      13.3596      1.40544    
   79.2310      13.2290      1.34607    
   80.5125      13.0940      1.28921    
   81.8147      12.9581      1.24456    
   83.1380      12.8303      1.20936    
   84.4827      12.7077      1.17516    
   85.8491      12.5870      1.14192    
   87.2377      12.4664      1.10962    
   88.6487      12.3379      1.07824    
   90.0825      12.2052      1.06091    
   91.5395      12.0817      1.05803    
   93.0201      11.9663      1.05516    
   94.5246      11.8538      1.05229    
   96.0535      11.7420      1.04944    
   97.6071      11.6216      1.04659    
   99.1858      11.5016      1.06408    
   100.790      11.3950      1.08191    
   102.420      11.2903      1.10003    
   104.077      11.1870      1.12083    
   105.760      11.0866      1.14370    
   107.471      10.9885      1.16704    
   109.209      10.8906      1.19088    
   110.975      10.7934      1.21937    
   112.770      10.6993      1.24854    
   114.594      10.6069      1.27841    
   116.448      10.5166      1.30900    
   118.331      10.4289      1.33689    
   120.245      10.3392      1.36092    
   122.190      10.2454      1.38539    
   124.166      10.1495      1.41030    
   126.175      10.0512      1.43565    
   128.215      9.95067      1.46147    
   130.289      9.84739      1.48636    
   132.397      9.73975      1.51124    
   134.538      9.62760      1.53654    
   136.714      9.51062      1.56227    
   138.925      9.38978      1.58842    
   141.172      9.26265      1.61080    
   143.456      9.11866      1.63263    
   145.776      8.96368      1.66773    
   148.134      8.80982      1.70676    
   150.530      8.64886      1.74670    
   152.964      8.47911      1.78758    
   155.439      8.29854      1.82941    
   157.953      8.10460      1.87223    
   160.507      7.89421      1.91604    
   163.103      7.65177      1.96088    
   165.742      7.38371      2.03945    
   168.422      7.11814      2.12622    
   171.146      6.83062      2.21668    
   173.915      6.49747      2.31099    
   176.727      6.12426      2.45858    
   179.586      5.73925      2.62210    
   182.491      5.29144      2.79649    
   185.442      4.76362      3.11715    
   188.442      4.24519      3.50225    
   191.489      3.72585      4.06736    
   194.587      3.29345      4.72367    
   197.734      2.93631      5.45302    
   200.932      2.64959      6.27694    
   204.182      2.56052      7.22531    
   207.485      2.70454      8.10752    
   210.840      2.85045      8.77518    
   214.251      2.97018      9.49780    
   217.716      3.23747      10.2800    
   221.237      3.65394      10.8933    
   224.816      3.96735      11.4221    
   228.452      4.30639      11.9699    
   232.147      4.67136      12.4037    
   235.902      5.00907      12.8532    
   239.717      5.39430      13.2861    
   243.595      5.77109      13.6140    
   247.535      6.08306      13.9500    
   251.538      6.38364      14.3013    
   255.607      6.69489      14.6750    
   259.741      7.03551      15.0585    
   263.942      7.43199      15.4252    
   268.211      7.82938      15.7013    
   272.549      8.18212      15.9824    
   276.957      8.53227      16.2685    
   281.437      8.88649      16.5503    
   285.989      9.23891      16.8342    
   290.615      9.59781      17.1230    
   295.315      9.96867      17.4169    
   300.092      10.3662      17.7165    
   304.945      10.7972      18.0026    
   309.878      11.2316      18.2484    
   314.890      11.6665      18.4976    
   319.983      12.1376      18.7502    
   325.158      12.6570      18.9677    
   330.418      13.1542      19.0906    
   335.762      13.6141      19.2143    
   341.192      14.0646      19.3388    
   346.711      14.5162      19.4641    
   352.319      14.9698      19.5681    
   358.017      15.4165      19.6718    
   363.808      15.8675      19.7761    
   369.692      16.3345      19.8810    
   375.672      16.8331      19.9530    
   381.748      17.3161      19.9913    
   387.922      17.7986      20.0079    
   394.197      18.2580      20.0044    
   400.573      18.7048      20.0009    
   407.052      19.1497      19.9975    
   413.635      19.6109      19.9940    
   420.326      20.1009      19.9719    
   427.124      20.5687      19.8575    
   434.032      20.9862      19.7437    
   441.052      21.3741      19.6306    
   448.186      21.7343      19.5181    
   455.435      22.0738      19.4455    
   462.802      22.4287      19.3803    
   470.287      22.7874      19.3154    
   477.894      23.1483      19.2507    
   485.623      23.5120      19.1861    
   493.478      23.8799      19.1218    
   501.459      24.2543      19.0578    
   509.570      24.6388      18.9939    
   517.812      25.0448      18.9302    
   526.187      25.4909      18.8668    
   534.698      25.9722      18.6823    
   543.346      26.3741      18.4693    
   552.134      26.7427      18.2588    
   561.065      27.0905      18.0506    
   570.139      27.4235      17.8448    
   579.361      27.7452      17.6414    
   588.732      28.0586      17.4402    
   598.254      28.3663      17.2414    
   607.930      28.6712      17.0448    
   617.763      28.9771      16.8505    
   627.755      29.2971      16.6584    
   637.908      29.6490      16.4649    
   648.226      29.9874      16.1602    
   658.711      30.2683      15.8612    
   669.365      30.5200      15.5676    
   680.191      30.7510      15.2796    
   691.193      30.9655      14.9968    
   702.372      31.1661      14.7193    
   713.733      31.3546      14.4469    
   725.277      31.5326      14.1796    
   737.008      31.7011      13.9172    
   748.928      31.8608      13.6596    
   761.042      32.0111      13.4086    
   773.351      32.1584      13.1684    
   785.859      32.3054      12.9325    
   798.570      32.4526      12.7008    
   811.486      32.6024      12.4732    
   824.611      32.7593      12.2498    
   837.949      32.9475      12.0303    
   851.502      33.1940      11.7256    
   865.274      33.3379      11.3663    
   879.269      33.4296      11.0180    
   893.491      33.4903      10.6804    
   907.943      33.5242      10.3531    
   922.628      33.5327      10.0359    
   937.551      33.5149      9.72833    
   952.715      33.4552      9.43024    
   968.124      33.3160      9.17791    
   983.783      33.2234      9.05465    
   999.695      33.1853      8.93304    
   1015.86      33.1719      8.81307    
   1032.29      33.1770      8.69471    
   1048.99      33.2060      8.57794    
   1065.96      33.2727      8.42326    
   1083.20      33.3002      8.24679    
   1100.72      33.3126      8.07470    
   1118.52      33.3187      7.90624    
   1136.61      33.3196      7.74122    
   1155.00      33.3158      7.57973    
   1173.68      33.3083      7.42173    
   1192.66      33.2973      7.26689    
   1211.95      33.2832      7.11522    
   1231.55      33.2664      6.96667    
   1251.47      33.2469      6.81944    
   1271.72      33.2251      6.67330    
   1292.29      33.1969      6.52785    
   1313.19      33.1636      6.38547    
   1334.43      33.1256      6.24623    
   1356.01      33.0833      6.11010    
   1377.94      33.0367      5.97686    
   1400.23      32.9857      5.84649    
   1422.88      32.9301      5.71890    
   1445.89      32.8699      5.59425    
   1469.28      32.8054      5.47214    
   1493.04      32.7358      5.35237    
   1517.19      32.6606      5.23414    
   1541.73      32.5790      5.11833    
   1566.67      32.4908      5.00499    
   1592.01      32.3955      4.89416    
   1617.76      32.2926      4.78584    
   1643.92      32.1817      4.68006    
   1670.51      32.0620      4.57642    
   1697.53      31.9323      4.47512    
   1724.99      31.7921      4.37621    
   1752.89      31.6395      4.27826    
   1781.24      31.4723      4.18206    
   1810.05      31.2881      4.08765    
   1839.32      31.0844      3.99533    
   1869.07      30.8579      3.90512    
   1899.30      30.6045      3.81700    
   1930.02      30.3183      3.73084    
   1961.24      29.9917      3.64663    
   1992.96      29.6135      3.56432    
   2025.20      29.1687      3.48519    
   2057.95      28.6318      3.40559    
   2091.24      27.9597      3.32752    
   2125.06      27.0726      3.25102    
   2159.43      25.7863      3.17610    
   2194.36      23.4506      3.10260    
   2222.20      8.16786      3.04605    
   2222.40      8.16893      11.4966    
   2229.85      19.7621      11.4305    
   2265.92      23.8842      11.1191    
   2302.57      22.6537      10.8162    
   2306.60      18.1276      10.7837    
   2306.80      18.1394      14.8501    
   2339.81      26.5177      14.5624    
   2377.66      28.2828      14.2442    
   2416.11      29.4030      13.9332    
   2455.19      30.1668      13.6291    
   2494.90      30.5725      13.3314    
   2531.50      27.7888      13.0668    
   2531.70      27.7965      14.9250    
   2535.26      29.9524      14.8957    
   2576.26      32.0720      14.5653    
   2617.93      33.0175      14.2407    
   2660.27      33.7454      13.9207    
   2703.30      34.3559      13.6051    
   2747.03      34.8861      13.2942    
   2791.46      35.3552      12.9882    
   2836.61      35.7751      12.6872    
   2882.49      36.1548      12.3913    
   2929.11      36.4994      12.0999    
   2976.48      36.8138      11.8143    
   3024.63      37.1019      11.5333    
   3073.55      37.3664      11.2576    
   3123.26      37.6094      10.9867    
   3173.78      37.8336      10.7213    
   3225.11      38.0401      10.4605    
   3277.27      38.2308      10.2053    
   3330.28      38.4068      9.95452    
   3384.15      38.5692      9.70940    
   3438.88      38.7199      9.46932    
   3494.50      38.8585      9.23316    
   3551.02      38.9871      9.00309    
   3608.46      39.1052      8.77713    
   3666.82      39.2143      8.55651    
   3726.13      39.3149      8.34033    
   3786.40      39.4075      8.12889    
   3847.64      39.4925      7.92213    
   3909.87      39.5705      7.71996    
   3973.11      39.6420      7.52237    
   4037.38      39.7074      7.32919    
   4102.68      39.7669      7.14039    
   4169.03      39.8211      6.95599    
   4236.46      39.8702      6.77583    
   4304.98      39.9145      6.59984    
   4374.62      39.9544      6.42800    
   4445.37      39.9901      6.26019    
   4517.27      40.0218      6.09641    
   4590.33      40.0498      5.93656    
   4664.58      40.0744      5.78053    
   4740.03      40.0956      5.62823    
   4816.69      40.1138      5.47966    
   4894.60      40.1291      5.33471    
   4973.77      40.1416      5.19335    
   5054.21      40.1517      5.05549    
   5135.96      40.1593      4.92100    
   5219.03      40.1647      4.78980    
   5303.44      40.1679      4.66199    
   5389.22      40.1692      4.53734    
   5476.39      40.1686      4.41583    
   5564.97      40.1663      4.29738    
   5654.98      40.1624      4.18198    
   5746.44      40.1569      4.06940    
   5839.39      40.1499      3.95983    
   5933.83      40.1416      3.85307    
   6029.81      40.1321      3.74900    
   6127.33      40.1214      3.64763    
   6226.44      40.1096      3.54889    
   6327.15      40.0967      3.45266    
   6429.48      40.0828      3.35894    
   6533.48      40.0682      3.26775    
   6639.15      40.0526      3.17881    
   6746.54      40.0362      3.09232    
   6855.65      40.0191      3.00807    
   6966.54      40.0013      2.92602    
   7079.22      39.9829      2.84615    
   7193.72      39.9639      2.76841    
   7310.07      39.9442      2.69268    
   7428.31      39.9242      2.61907    
   7548.45      39.9036      2.54727    
   7670.54      39.8825      2.47744    
   7794.61      39.8610      2.40948    
   7920.68      39.8391      2.34342    
   8048.79      39.8169      2.27901    
   8178.98      39.7942      2.21629    
   8311.26      39.7711      2.15533    
   8445.69      39.7478      2.09610    
   8582.29      39.7241      2.03829    
   8721.11      39.7001      1.98207    
   8862.16      39.6757      1.92742    
   9005.50      39.6511      1.87425    
   9151.16      39.6262      1.82248    
   9299.17      39.6010      1.77214    
   9449.58      39.5755      1.72314    
   9602.42      39.5497      1.67549    
   9757.73      39.5235      1.62913    
   9915.55      39.4971      1.58400    
   10075.9      39.4703      1.54012    
   10238.9      39.4431      1.49743    
   10404.5      39.4155      1.45590    
   10572.8      39.3876      1.41551    
   10743.8      39.3592      1.37621    
   10917.6      39.3303      1.33798    
   11094.2      39.3009      1.30080    
   11273.6      39.2710      1.26462    
   11455.9      39.2404      1.22944    
   11641.2      39.2092      1.19521    
   11829.5      39.1772      1.16192    
   12020.8      39.1444      1.12954    
   12215.3      39.1107      1.09804    
   12412.8      39.0760      1.06741    
   12613.6      39.0402      1.03761    
   12817.6      39.0031      1.00862    
   13025.0      38.9645     0.980427    
   13235.6      38.9244     0.953003    
   13449.7      38.8824     0.926328    
   13667.2      38.8383     0.900381    
   13888.3      38.7918     0.875144    
   14112.9      38.7426     0.850595    
   14341.2      38.6901     0.826717    
   14573.1      38.6338     0.803490    
   14808.9      38.5730     0.780897    
   15048.4      38.5068     0.758920    
   15291.8      38.4341     0.737544    
   15539.1      38.3534     0.716749    
   15790.4      38.2625     0.696522    
   16045.8      38.1585     0.676845    
   16305.4      38.0372     0.657705    
   16569.1      37.8918     0.639085    
   16837.1      37.7113     0.620971    
   17109.4      37.4749     0.603351    
   17386.1      37.1373     0.586209    
   17667.4      36.5626     0.569532    
   17953.1      34.5939     0.553309    
   17997.5      28.3840     0.550852    
   17997.7      28.3842      3.75901    
   18243.5      36.4374      3.68092    
   18538.6      37.2968      3.59064    
   18838.4      37.7867      3.50200    
   19143.1      38.1322      3.41501    
   19452.7      38.3989      3.32966    
   19767.4      38.6155      3.24596    
   20087.1      38.7968      3.16391    
   20412.0      38.9521      3.08349    
   20742.1      39.0869      3.00471    
   21077.6      39.2055      2.92754    
   21418.5      39.3106      2.85199    
   21765.0      39.4045      2.77804    
   22117.0      39.4887      2.70568    
   22474.7      39.5645      2.63488    
   22838.2      39.6332      2.56564    
   23207.6      39.6954      2.49794    
   23583.0      39.7519      2.43176    
   23964.4      39.8033      2.36708    
   24352.0      39.8502      2.30387    
   24745.9      39.8929      2.24213    
   25146.2      39.9319      2.18183    
   25552.9      39.9674      2.12294    
   25966.2      39.9998      2.06545    
   26386.1      40.0293      2.00933    
   26812.9      40.0562      1.95456    
   27246.6      40.0807      1.90112    
   27687.3      40.1030      1.84899    
   28135.1      40.1231      1.79813    
   28590.2      40.1414      1.74853    
   29052.6      40.1579      1.70017    
   29522.5      40.1727      1.65302    
   30000.0      40.1860      1.60705    
